# stacked metamaterial geometry 
# f [Hz], L [0.001 m]
# Unitcell size lx, ly, lz = 20, 20, 299.792 at center position x = 0 y = 0 z = 0
# Definition of material properties: 
#name = FR4,Epsilon = 4.4,tand = 0.02,f0 = 5000000000,type = const,
#name = copper,type = const,EpsilonPlasmaFrequency = 250000000000000,EpsilonRelaxTime = 1.6e-13,Kappa = 56000000,
#name = copperRings,EpsilonPlasmaFrequency = 250000000000000,EpsilonRelaxTime = 1.6e-13,Kappa = 56000000,type = const,
#name = air,type = const,Epsilon = 1,
## layer number 1:
# rect patch made of copper lx, ly, lz = 20, 20, 0.5 at center position x = 0 y = 0 z = -0.25
# layer number 2:
# rect patch made of FR4 lx, ly, lz = 20, 20, 2 at center position x = 0 y = 0 z = -1.5
# layer number 3:
# circular rings made of copperRings at center position x = 0 y = 0 z = -2.525
# radius R1, R2=9.8, 5.1 ringwidths w1, w2=1.6, 0.5, background material air
# Re/Im parts of the scattering parameters S11 (refl.) and S21 (transm.) as a function of frequency 
# first column is frequency, second column is S11
# Parameters of Metamaterial are: 
1000000000.000000, 0.409808, -0.911664, 0.000000, -0.000000 
1010005265.929437, 0.310939, -0.949858, -0.000000, -0.000000 
1020010531.858873, 0.208647, -0.977267, -0.000000, -0.000000 
1030015797.788310, 0.104157, -0.993680, -0.000000, 0.000000 
1040021063.717746, -0.001384, -0.999037, -0.000000, 0.000000 
1050026329.647183, -0.106906, -0.993333, 0.000000, 0.000000 
1060031595.576619, -0.211341, -0.976582, 0.000000, 0.000000 
1070036861.506056, -0.313552, -0.948850, 0.000000, -0.000000 
1080042127.435492, -0.412325, -0.910342, 0.000000, -0.000000 
1090047393.364929, -0.506425, -0.861475, -0.000000, -0.000000 
1100052659.294365, -0.594707, -0.802880, -0.000000, -0.000000 
1110057925.223802, -0.676186, -0.735337, -0.000000, 0.000000 
1120063191.153239, -0.750045, -0.659675, -0.000000, 0.000000 
1130068457.082675, -0.815571, -0.576710, 0.000000, 0.000000 
1140073723.012112, -0.872076, -0.487265, 0.000000, 0.000000 
1150078988.941548, -0.918874, -0.392237, 0.000000, -0.000000 
1160084254.870985, -0.955323, -0.292662, 0.000000, -0.000000 
1170089520.800421, -0.980918, -0.189728, -0.000000, -0.000000 
1180094786.729858, -0.995361, -0.084703, -0.000000, -0.000000 
1190100052.659294, -0.998568, 0.021154, -0.000000, 0.000000 
1200105318.588731, -0.990610, 0.126665, -0.000000, 0.000000 
1210110584.518167, -0.971634, 0.230735, 0.000000, 0.000000 
1220115850.447604, -0.941818, 0.332293, 0.000000, 0.000000 
1230121116.377041, -0.901400, 0.430235, 0.000000, -0.000000 
1240126382.306477, -0.850744, 0.523410, 0.000000, -0.000000 
1250131648.235914, -0.790398, 0.610671, -0.000000, -0.000000 
1260136914.165350, -0.721101, 0.690961, -0.000000, -0.000000 
1270142180.094787, -0.643724, 0.763374, -0.000000, 0.000000 
1280147446.024223, -0.559192, 0.827163, -0.000000, 0.000000 
1290152711.953660, -0.468438, 0.881691, 0.000000, 0.000000 
1300157977.883096, -0.372409, 0.926379, 0.000000, 0.000000 
1310163243.812533, -0.272114, 0.960688, 0.000000, -0.000000 
1320168509.741970, -0.168662, 0.984155, 0.000000, -0.000000 
1330173775.671406, -0.063264, 0.996453, -0.000000, -0.000000 
1340179041.600842, 0.042821, 0.997439, -0.000000, -0.000000 
1350184307.530279, 0.148354, 0.987153, -0.000000, 0.000000 
1360189573.459716, 0.252162, 0.965770, -0.000000, 0.000000 
1370194839.389152, 0.353129, 0.933550, 0.000000, 0.000000 
1380200105.318589, 0.450164, 0.890824, 0.000000, 0.000000 
1390205371.248025, 0.542174, 0.838013, 0.000000, -0.000000 
1400210637.177462, 0.628076, 0.775676, 0.000000, -0.000000 
1410215903.106898, 0.706844, 0.704530, -0.000000, -0.000000 
1420221169.036335, 0.777570, 0.625425, -0.000000, -0.000000 
1430226434.965771, 0.839483, 0.539297, -0.000000, 0.000000 
1440231700.895208, 0.891933, 0.447113, -0.000000, 0.000000 
1450236966.824645, 0.934353, 0.349868, 0.000000, 0.000000 
1460242232.754081, 0.966237, 0.248607, 0.000000, 0.000000 
1470247498.683518, 0.987159, 0.144462, 0.000000, -0.000000 
1480252764.612954, 0.996830, 0.038652, 0.000000, -0.000000 
1490258030.542391, 0.995140, -0.067556, -0.000000, -0.000000 
1500263296.471827, 0.982165, -0.172918, -0.000000, -0.000000 
1510268562.401264, 0.958120, -0.276266, -0.000000, 0.000000 
1520273828.330700, 0.923298, -0.376504, -0.000000, 0.000000 
1530279094.260137, 0.878042, -0.472567, 0.000000, 0.000000 
1540284360.189574, 0.822767, -0.563372, 0.000000, 0.000000 
1550289626.119010, 0.758025, -0.647814, 0.000000, -0.000000 
1560294892.048447, 0.684557, -0.724827, 0.000000, -0.000000 
1570300157.977883, 0.603284, -0.793469, -0.000000, -0.000000 
1580305423.907320, 0.515236, -0.852983, -0.000000, -0.000000 
1590310689.836756, 0.421462, -0.902798, -0.000000, 0.000000 
1600315955.766193, 0.322972, -0.942452, -0.000000, 0.000000 
1610321221.695629, 0.220761, -0.971523, 0.000000, 0.000000 
1620326487.625066, 0.115877, -0.989596, 0.000000, 0.000000 
1630331753.554502, 0.009498, -0.996314, 0.000000, -0.000000 
1640337019.483939, -0.097063, -0.991485, 0.000000, -0.000000 
1650342285.413375, -0.202437, -0.975159, -0.000000, -0.000000 
1660347551.342812, -0.305319, -0.947631, -0.000000, -0.000000 
1670352817.272249, -0.404555, -0.909367, -0.000000, 0.000000 
1680358083.201685, -0.499144, -0.860880, -0.000000, 0.000000 
1690363349.131122, -0.588156, -0.802671, 0.000000, 0.000000 
1700368615.060558, -0.670636, -0.735244, 0.000000, 0.000000 
1710373880.989995, -0.745563, -0.659205, 0.000000, -0.000000 
1720379146.919431, -0.811901, -0.575367, 0.000000, -0.000000 
1730384412.848868, -0.868724, -0.484774, -0.000000, -0.000000 
1740389678.778304, -0.915332, -0.388638, -0.000000, -0.000000 
1750394944.707741, -0.951284, -0.288207, -0.000000, 0.000000 
1760400210.637177, -0.976334, -0.184649, -0.000000, 0.000000 
1770405476.566614, -0.990312, -0.079034, 0.000000, 0.000000 
1780410742.496051, -0.993039, 0.027601, 0.000000, 0.000000 
1790416008.425487, -0.984334, 0.134143, 0.000000, -0.000000 
1800421274.354924, -0.964100, 0.239336, 0.000000, -0.000000 
1810426540.284360, -0.932452, 0.341811, -0.000000, -0.000000 
1820431806.213797, -0.889776, 0.440200, -0.000000, -0.000000 
1830437072.143233, -0.836701, 0.533259, -0.000000, 0.000000 
1840442338.072670, -0.773996, 0.619944, -0.000000, 0.000000 
1850447604.002106, -0.702451, 0.699382, 0.000000, 0.000000 
1860452869.931543, -0.622830, 0.770788, 0.000000, 0.000000 
1870458135.860980, -0.535901, 0.833372, 0.000000, -0.000000 
1880463401.790416, -0.442525, 0.886318, 0.000000, -0.000000 
1890468667.719852, -0.343734, 0.928838, -0.000000, -0.000000 
1900473933.649289, -0.240747, 0.960274, -0.000000, -0.000000 
1910479199.578726, -0.134908, 0.980186, -0.000000, 0.000000 
1920484465.508162, -0.027585, 0.988373, -0.000000, 0.000000 
1930489731.437599, 0.079912, 0.984835, 0.000000, 0.000000 
1940494997.367035, 0.186363, 0.969694, 0.000000, 0.000000 
1950500263.296472, 0.290610, 0.943139, 0.000000, -0.000000 
1960505529.225908, 0.391507, 0.905401, 0.000000, -0.000000 
1970510795.155345, 0.487875, 0.856792, -0.000000, -0.000000 
1980516061.084782, 0.578502, 0.797755, -0.000000, -0.000000 
1990521327.014218, 0.662175, 0.728913, -0.000000, 0.000000 
2000526592.943655, 0.737747, 0.651086, -0.000000, 0.000000 
2010531858.873091, 0.804199, 0.565269, 0.000000, 0.000000 
2020537124.802528, 0.860683, 0.472587, 0.000000, 0.000000 
2030542390.731964, 0.906539, 0.374227, 0.000000, -0.000000 
2040547656.661401, 0.941267, 0.271384, 0.000000, -0.000000 
2050552922.590837, 0.964474, 0.165229, -0.000000, -0.000000 
2060558188.520274, 0.975827, 0.056934, -0.000000, -0.000000 
2070563454.449710, 0.975026, -0.052280, -0.000000, 0.000000 
2080568720.379147, 0.961837, -0.161076, -0.000000, 0.000000 
2090573986.308583, 0.936186, -0.267975, 0.000000, 0.000000 
2100579252.238020, 0.898250, -0.371402, 0.000000, 0.000000 
2110584518.167457, 0.848516, -0.469806, 0.000000, -0.000000 
2120589784.096893, 0.787736, -0.561792, 0.000000, -0.000000 
2130595050.026330, 0.716809, -0.646197, -0.000000, -0.000000 
2140600315.955766, 0.636632, -0.722053, -0.000000, -0.000000 
2150605581.885203, 0.548032, -0.788462, -0.000000, 0.000000 
2160610847.814639, 0.451823, -0.844441, -0.000000, 0.000000 
2170616113.744076, 0.348975, -0.888871, 0.000000, 0.000000 
2180621379.673512, 0.240791, -0.920590, 0.000000, 0.000000 
2190626645.602949, 0.128971, -0.938620, 0.000000, -0.000000 
2200631911.532386, 0.015493, -0.942378, 0.000000, -0.000000 
2210637177.461822, -0.097634, -0.931761, -0.000000, -0.000000 
2220642443.391258, -0.208605, -0.907023, -0.000000, -0.000000 
2230647709.320695, -0.315886, -0.868511, -0.000000, 0.000000 
2240652975.250132, -0.418046, -0.816442, -0.000000, 0.000000 
2250658241.179568, -0.513456, -0.750879, 0.000000, 0.000000 
2260663507.109005, -0.600035, -0.671970, 0.000000, 0.000000 
2270668773.038442, -0.675235, -0.580344, 0.000000, -0.000000 
2280674038.967878, -0.736328, -0.477431, 0.000000, -0.000000 
2290679304.897314, -0.780835, -0.365519, -0.000000, -0.000000 
2300684570.826751, -0.806876, -0.247507, -0.000000, -0.000000 
2310689836.756187, -0.813207, -0.126518, -0.000000, 0.000000 
2320695102.685624, -0.798944, -0.005696, -0.000000, 0.000000 
2330700368.615061, -0.763222, 0.111622, 0.000000, 0.000000 
2340705634.544497, -0.705141, 0.221339, 0.000000, 0.000000 
2350710900.473934, -0.624304, 0.317973, 0.000000, -0.000000 
2360716166.403370, -0.521953, 0.394445, 0.000000, -0.000000 
2370721432.332807, -0.402338, 0.442726, -0.000000, -0.000000 
2380726698.262243, -0.273694, 0.455453, -0.000000, -0.000000 
2390731964.191680, -0.148199, 0.428183, -0.000000, 0.000000 
2400737230.121117, -0.040581, 0.361601, -0.000000, 0.000000 
2410742496.050553, 0.034498, 0.262865, 0.000000, 0.000000 
2420747761.979990, 0.065684, 0.145447, 0.000000, 0.000000 
2430753027.909426, 0.047889, 0.027226, 0.000000, -0.000000 
2440758293.838862, -0.016009, -0.072847, 0.000000, -0.000000 
2450763559.768299, -0.115395, -0.138635, -0.000000, -0.000000 
2460768825.697736, -0.234141, -0.160083, -0.000000, -0.000000 
2470774091.627172, -0.354141, -0.134862, -0.000000, 0.000000 
2480779357.556609, -0.459048, -0.067970, -0.000000, 0.000000 
2490784623.486045, -0.537054, 0.030385, 0.000000, 0.000000 
2500789889.415482, -0.582103, 0.147730, 0.000000, 0.000000 
2510795155.344918, -0.593454, 0.272127, 0.000000, -0.000000 
2520800421.274355, -0.574120, 0.394063, 0.000000, -0.000000 
2530805687.203792, -0.528909, 0.507106, -0.000000, -0.000000 
2540810953.133228, -0.462791, 0.607509, -0.000000, -0.000000 
2550816219.062665, -0.380015, 0.693228, -0.000000, 0.000000 
2560821484.992101, -0.284024, 0.762954, -0.000000, 0.000000 
2570826750.921537, -0.177855, 0.815551, 0.000000, 0.000000 
2580832016.850974, -0.064617, 0.850035, 0.000000, 0.000000 
2590837282.780411, 0.052318, 0.865884, 0.000000, -0.000000 
2600842548.709847, 0.169496, 0.863362, 0.000000, -0.000000 
2610847814.639284, 0.283802, 0.843590, -0.000000, -0.000000 
2620853080.568720, 0.392834, 0.808274, -0.000000, -0.000000 
2630858346.498157, 0.495004, 0.759242, -0.000000, 0.000000 
2640863612.427593, 0.589312, 0.698044, -0.000000, 0.000000 
2650868878.357030, 0.674941, 0.625832, 0.000000, 0.000000 
2660874144.286467, 0.750916, 0.543532, 0.000000, 0.000000 
2670879410.215903, 0.816015, 0.452195, 0.000000, -0.000000 
2680884676.145340, 0.868967, 0.353273, 0.000000, -0.000000 
2690889942.074776, 0.908779, 0.248655, -0.000000, -0.000000 
2700895208.004213, 0.935002, 0.140458, -0.000000, -0.000000 
2710900473.933649, 0.947753, 0.030681, -0.000000, 0.000000 
2720905739.863086, 0.947517, -0.079038, -0.000000, 0.000000 
2730911005.792522, 0.934831, -0.187463, 0.000000, 0.000000 
2740916271.721959, 0.910070, -0.293570, 0.000000, 0.000000 
2750921537.651396, 0.873430, -0.396290, 0.000000, -0.000000 
2760926803.580832, 0.825112, -0.494324, 0.000000, -0.000000 
2770932069.510269, 0.765567, -0.586169, -0.000000, -0.000000 
2780937335.439705, 0.695653, -0.670308, -0.000000, -0.000000 
2790942601.369142, 0.616603, -0.745463, -0.000000, 0.000000 
2800947867.298578, 0.529841, -0.810739, -0.000000, 0.000000 
2810953133.228015, 0.436747, -0.865618, 0.000000, 0.000000 
2820958399.157452, 0.338521, -0.909791, 0.000000, 0.000000 
2830963665.086888, 0.236194, -0.942974, 0.000000, -0.000000 
2840968931.016325, 0.130769, -0.964796, 0.000000, -0.000000 
2850974196.945761, 0.023378, -0.974834, -0.000000, -0.000000 
2860979462.875197, -0.084631, -0.972750, -0.000000, -0.000000 
2870984728.804634, -0.191740, -0.958454, -0.000000, 0.000000 
2880989994.734071, -0.296402, -0.932182, -0.000000, 0.000000 
2890995260.663507, -0.397197, -0.894471, 0.000000, 0.000000 
2901000526.592944, -0.492929, -0.846042, 0.000000, 0.000000 
2911005792.522380, -0.582614, -0.787660, 0.000000, -0.000000 
2921011058.451817, -0.665397, -0.720056, 0.000000, -0.000000 
2931016324.381253, -0.740449, -0.643927, -0.000000, -0.000000 
2941021590.310690, -0.806897, -0.560016, -0.000000, -0.000000 
2951026856.240127, -0.863850, -0.469203, -0.000000, 0.000000 
2961032122.169563, -0.910469, -0.372566, -0.000000, 0.000000 
2971037388.099000, -0.946084, -0.271376, 0.000000, 0.000000 
2981042654.028436, -0.970268, -0.167015, 0.000000, 0.000000 
2991047919.957872, -0.982855, -0.060868, 0.000000, -0.000000 
3001053185.887309, -0.983889, 0.045770, 0.000000, -0.000000 
3011058451.816746, -0.973531, 0.151732, -0.000000, -0.000000 
3021063717.746182, -0.951969, 0.255943, -0.000000, -0.000000 
3031068983.675619, -0.919392, 0.357341, -0.000000, 0.000000 
3041074249.605055, -0.876028, 0.454799, -0.000000, 0.000000 
3051079515.534492, -0.822234, 0.547101, 0.000000, 0.000000 
3061084781.463928, -0.758593, 0.633003, 0.000000, 0.000000 
3071090047.393365, -0.685939, 0.711339, 0.000000, -0.000000 
3081095313.322802, -0.605313, 0.781140, 0.000000, -0.000000 
3091100579.252238, -0.517841, 0.841688, -0.000000, -0.000000 
3101105845.181675, -0.424615, 0.892479, -0.000000, -0.000000 
3111111111.111111, -0.326635, 0.933119, -0.000000, 0.000000 
3121116377.040547, -0.224848, 0.963216, -0.000000, 0.000000 
3131121642.969984, -0.120247, 0.982337, 0.000000, 0.000000 
3141126908.899421, -0.013983, 0.990070, 0.000000, 0.000000 
3151132174.828857, 0.092613, 0.986147, 0.000000, -0.000000 
3161137440.758294, 0.198100, 0.970568, 0.000000, -0.000000 
3171142706.687730, 0.301074, 0.943635, -0.000000, -0.000000 
3181147972.617167, 0.400302, 0.905885, -0.000000, -0.000000 
3191153238.546604, 0.494768, 0.857948, -0.000000, 0.000000 
3201158504.476040, 0.583610, 0.800420, -0.000000, 0.000000 
3211163770.405477, 0.665991, 0.733840, 0.000000, 0.000000 
3221169036.334913, 0.740997, 0.658754, 0.000000, 0.000000 
3231174302.264350, 0.807633, 0.575860, 0.000000, -0.000000 
3241179568.193786, 0.864917, 0.486096, 0.000000, -0.000000 
3251184834.123223, 0.912038, 0.390645, -0.000000, -0.000000 
3261190100.052660, 0.948458, 0.290822, -0.000000, -0.000000 
3271195365.982096, 0.973923, 0.187925, -0.000000, 0.000000 
3281200631.911532, 0.988363, 0.083120, -0.000000, 0.000000 
3291205897.840969, 0.991755, -0.022553, 0.000000, 0.000000 
3301211163.770406, 0.984046, -0.128094, 0.000000, 0.000000 
3311216429.699842, 0.965167, -0.232423, 0.000000, -0.000000 
3321221695.629279, 0.935138, -0.334317, 0.000000, -0.000000 
3331226961.558715, 0.894196, -0.432454, -0.000000, -0.000000 
3341232227.488152, 0.842852, -0.525527, -0.000000, -0.000000 
3351237493.417588, 0.781856, -0.612381, -0.000000, 0.000000 
3361242759.347025, 0.712080, -0.692076, -0.000000, 0.000000 
3371248025.276461, 0.634405, -0.763861, 0.000000, 0.000000 
3381253291.205898, 0.549664, -0.827082, 0.000000, 0.000000 
3391258557.135334, 0.458677, -0.881092, 0.000000, -0.000000 
3401263823.064771, 0.362332, -0.925223, 0.000000, -0.000000 
3411269088.994207, 0.261668, -0.958836, -0.000000, -0.000000 
3421274354.923644, 0.157883, -0.981417, -0.000000, -0.000000 
3431279620.853081, 0.052290, -0.992657, -0.000000, 0.000000 
3441284886.782517, -0.053792, -0.992484, -0.000000, 0.000000 
3451290152.711954, -0.159109, -0.981018, 0.000000, 0.000000 
3461295418.641390, -0.262513, -0.958498, 0.000000, 0.000000 
3471300684.570827, -0.362932, -0.925223, 0.000000, -0.000000 
3481305950.500263, -0.459322, -0.881531, 0.000000, -0.000000 
3491311216.429700, -0.550629, -0.827828, -0.000000, -0.000000 
3501316482.359137, -0.635780, -0.764634, -0.000000, -0.000000 
3511321748.288573, -0.713729, -0.692630, -0.000000, 0.000000 
3521327014.218009, -0.783508, -0.612657, -0.000000, 0.000000 
3531332280.147446, -0.844282, -0.525694, 0.000000, 0.000000 
3541337546.076883, -0.895373, -0.432808, 0.000000, 0.000000 
3551342812.006319, -0.936263, -0.335103, 0.000000, -0.000000 
3561348077.935756, -0.966562, -0.233685, 0.000000, -0.000000 
3571353343.865192, -0.985982, -0.129654, -0.000000, -0.000000 
3581358609.794629, -0.994311, -0.024118, -0.000000, -0.000000 
3591363875.724065, -0.991409, 0.081789, -0.000000, 0.000000 
3601369141.653502, -0.977230, 0.186880, -0.000000, 0.000000 
3611374407.582939, -0.951867, 0.289919, 0.000000, 0.000000 
3621379673.512375, -0.915583, 0.389653, 0.000000, 0.000000 
3631384939.441812, -0.868832, 0.484871, 0.000000, -0.000000 
3641390205.371248, -0.812236, 0.574462, 0.000000, -0.000000 
3651395471.300684, -0.746527, 0.657451, -0.000000, -0.000000 
3661400737.230121, -0.672488, 0.732994, -0.000000, -0.000000 
3671406003.159558, -0.590914, 0.800333, -0.000000, 0.000000 
3681411269.088995, -0.502626, 0.858743, -0.000000, 0.000000 
3691416535.018431, -0.408523, 0.907512, 0.000000, 0.000000 
3701421800.947867, -0.309634, 0.945975, 0.000000, 0.000000 
3711427066.877304, -0.207137, 0.973587, 0.000000, -0.000000 
3721432332.806740, -0.102318, 0.990001, 0.000000, -0.000000 
3731437598.736177, 0.003522, 0.995096, -0.000000, -0.000000 
3741442864.665614, 0.109149, 0.988947, -0.000000, -0.000000 
3751448130.595050, 0.213442, 0.971741, -0.000000, 0.000000 
3761453396.524487, 0.315356, 0.943701, -0.000000, 0.000000 
3771458662.453923, 0.413854, 0.905064, 0.000000, 0.000000 
3781463928.383360, 0.507840, 0.856123, 0.000000, 0.000000 
3791469194.312796, 0.596156, 0.797320, 0.000000, -0.000000 
3801474460.242233, 0.677656, 0.729313, 0.000000, -0.000000 
3811479726.171669, 0.751308, 0.652973, -0.000000, -0.000000 
3821484992.101106, 0.816278, 0.569315, -0.000000, -0.000000 
3831490258.030542, 0.871942, 0.479389, -0.000000, 0.000000 
3841495523.959979, 0.917820, 0.384204, -0.000000, 0.000000 
3851500789.889416, 0.953488, 0.284720, 0.000000, 0.000000 
3861506055.818852, 0.978521, 0.181914, 0.000000, 0.000000 
3871511321.748289, 0.992514, 0.076864, 0.000000, -0.000000 
3881516587.677725, 0.995163, -0.029210, 0.000000, -0.000000 
3891521853.607162, 0.986362, -0.134983, -0.000000, -0.000000 
3901527119.536598, 0.966249, -0.239118, -0.000000, -0.000000 
3911532385.466035, 0.935178, -0.340371, -0.000000, 0.000000 
3921537651.395472, 0.893631, -0.437644, -0.000000, 0.000000 
3931542917.324908, 0.842130, -0.529961, 0.000000, 0.000000 
3941548183.254344, 0.781201, -0.616400, 0.000000, 0.000000 
3951553449.183781, 0.711408, -0.696022, 0.000000, -0.000000 
3961558715.113217, 0.633428, -0.767864, 0.000000, -0.000000 
3971563981.042654, 0.548109, -0.830990, -0.000000, -0.000000 
3981569246.972091, 0.456479, -0.884580, -0.000000, -0.000000 
3991574512.901527, 0.359689, -0.928001, -0.000000, 0.000000 
4001579778.830964, 0.258926, -0.960821, -0.000000, 0.000000 
4011585044.760400, 0.155347, -0.982770, 0.000000, 0.000000 
4021590310.689837, 0.050065, -0.993676, 0.000000, 0.000000 
4031595576.619273, -0.055825, -0.993423, 0.000000, -0.000000 
4041600842.548710, -0.161190, -0.981948, 0.000000, -0.000000 
4051606108.478147, -0.264839, -0.959291, -0.000000, -0.000000 
4061611374.407583, -0.365541, -0.925642, -0.000000, -0.000000 
4071616640.337019, -0.462070, -0.881376, -0.000000, 0.000000 
4081621906.266456, -0.553274, -0.827042, -0.000000, 0.000000 
