# stacked metamaterial geometry 
# f [Hz], L [0.001 m]
# Unitcell size lx, ly, lz = 20, 20, 299.792 at center position x = 0 y = 0 z = 0
# Definition of material properties: 
#name = FR4,Epsilon = 4.4,tand = 0.02,f0 = 5000000000,type = const,
#name = copper,type = const,EpsilonPlasmaFrequency = 250000000000000,EpsilonRelaxTime = 1.6e-13,Kappa = 56000000,
#name = copperRings,EpsilonPlasmaFrequency = 250000000000000,EpsilonRelaxTime = 1.6e-13,Kappa = 56000000,type = const,
#name = air,type = const,Epsilon = 1,
## layer number 1:
# rect patch made of copper lx, ly, lz = 20, 20, 0.5 at center position x = 0 y = 0 z = -0.25
# layer number 2:
# rect patch made of FR4 lx, ly, lz = 20, 20, 2 at center position x = 0 y = 0 z = -1.5
# layer number 3:
# circular rings made of copperRings at center position x = 0 y = 0 z = -2.525
# radius R1, R2=9.8, 5.1 ringwidths w1, w2=0.9, 0.5, background material air
# Re/Im parts of the scattering parameters S11 (refl.) and S21 (transm.) as a function of frequency 
# first column is frequency, second column is S11
# Parameters of Metamaterial are: 
1000000000.000000, 0.413034, -0.909855, -0.000000, 0.000000 
1010005265.929437, 0.314632, -0.950382, 0.000000, 0.000000 
1020010531.858873, 0.211217, -0.979902, 0.000000, 0.000000 
1030015797.788310, 0.104514, -0.997228, 0.000000, 0.000000 
1040021063.717746, -0.003310, -1.001864, 0.000000, -0.000000 
1050026329.647183, -0.110111, -0.994139, 0.000000, -0.000000 
1060031595.576619, -0.214210, -0.975017, -0.000000, -0.000000 
1070036861.506056, -0.314623, -0.945691, -0.000000, -0.000000 
1080042127.435492, -0.410981, -0.907127, -0.000000, 0.000000 
1090047393.364929, -0.503188, -0.859774, -0.000000, 0.000000 
1100052659.294365, -0.590979, -0.803556, 0.000000, 0.000000 
1110057925.223802, -0.673582, -0.738148, 0.000000, 0.000000 
1120063191.153239, -0.749635, -0.663414, 0.000000, 0.000000 
1130068457.082675, -0.817404, -0.579791, 0.000000, -0.000000 
1140073723.012112, -0.875193, -0.488459, 0.000000, -0.000000 
1150078988.941548, -0.921783, -0.391212, -0.000000, -0.000000 
1160084254.870985, -0.956689, -0.290098, -0.000000, -0.000000 
1170089520.800421, -0.980146, -0.186968, -0.000000, 0.000000 
1180094786.729858, -0.992829, -0.083141, -0.000000, 0.000000 
1190100052.659294, -0.995426, 0.020682, -0.000000, 0.000000 
1200105318.588731, -0.988259, 0.124221, 0.000000, 0.000000 
1210110584.518167, -0.971123, 0.227223, 0.000000, 0.000000 
1220115850.447604, -0.943413, 0.329062, 0.000000, -0.000000 
1230121116.377041, -0.904484, 0.428504, 0.000000, -0.000000 
1240126382.306477, -0.854085, 0.523761, -0.000000, -0.000000 
1250131648.235914, -0.792662, 0.612803, -0.000000, -0.000000 
1260136914.165350, -0.721422, 0.693807, -0.000000, 0.000000 
1270142180.094787, -0.642083, 0.765545, -0.000000, 0.000000 
1280147446.024223, -0.556456, 0.827546, -0.000000, 0.000000 
1290152711.953660, -0.466003, 0.879955, 0.000000, 0.000000 
1300157977.883096, -0.371594, 0.923158, 0.000000, 0.000000 
1310163243.812533, -0.273555, 0.957334, 0.000000, -0.000000 
1320168509.741970, -0.171991, 0.982145, 0.000000, -0.000000 
1330173775.671406, -0.067237, 0.996715, -0.000000, -0.000000 
1340179041.600842, 0.039781, 0.999897, -0.000000, -0.000000 
1350184307.530279, 0.147427, 0.990728, -0.000000, 0.000000 
1360189573.459716, 0.253565, 0.968861, -0.000000, 0.000000 
1370194839.389152, 0.355996, 0.934781, -0.000000, 0.000000 
1380200105.318589, 0.452938, 0.889696, 0.000000, 0.000000 
1390205371.248025, 0.543337, 0.835153, 0.000000, 0.000000 
1400210637.177462, 0.626871, 0.772543, 0.000000, -0.000000 
1410215903.106898, 0.703632, 0.702729, 0.000000, -0.000000 
1420221169.036335, 0.773656, 0.625954, -0.000000, -0.000000 
1430226434.965771, 0.836503, 0.542086, -0.000000, -0.000000 
1440231700.895208, 0.891098, 0.451073, -0.000000, -0.000000 
1450236966.824645, 0.935902, 0.353398, -0.000000, 0.000000 
1460242232.754081, 0.969348, 0.250331, -0.000000, 0.000000 
1470247498.683518, 0.990340, 0.143839, 0.000000, 0.000000 
1480252764.612954, 0.998601, 0.036200, 0.000000, 0.000000 
1490258030.542391, 0.994685, -0.070516, 0.000000, -0.000000 
1500263296.471827, 0.979680, -0.174859, 0.000000, -0.000000 
1510268562.401264, 0.954709, -0.276127, 0.000000, -0.000000 
1520273828.330700, 0.920484, -0.374153, -0.000000, -0.000000 
1530279094.260137, 0.877099, -0.468855, -0.000000, -0.000000 
1540284360.189574, 0.824161, -0.559767, -0.000000, 0.000000 
1550289626.119010, 0.761196, -0.645770, -0.000000, 0.000000 
1560294892.048447, 0.688145, -0.725136, 0.000000, 0.000000 
1570300157.977883, 0.605711, -0.795896, 0.000000, 0.000000 
1580305423.907320, 0.515406, -0.856341, 0.000000, -0.000000 
1590310689.836756, 0.419266, -0.905452, 0.000000, -0.000000 
1600315955.766193, 0.319370, -0.943051, 0.000000, -0.000000 
1610321221.695629, 0.217370, -0.969622, -0.000000, -0.000000 
1620326487.625066, 0.114245, -0.985894, -0.000000, -0.000000 
1630331753.554502, 0.010372, -0.992359, -0.000000, 0.000000 
1640337019.483939, -0.094112, -0.988960, -0.000000, 0.000000 
1650342285.413375, -0.198844, -0.975085, 0.000000, 0.000000 
1660347551.342812, -0.302862, -0.949863, 0.000000, 0.000000 
1670352817.272249, -0.404515, -0.912627, 0.000000, 0.000000 
1680358083.201685, -0.501685, -0.863351, 0.000000, -0.000000 
1690363349.131122, -0.592235, -0.802842, 0.000000, -0.000000 
1700368615.060558, -0.674487, -0.732616, -0.000000, -0.000000 
1710373880.989995, -0.747521, -0.654517, -0.000000, -0.000000 
1720379146.919431, -0.811167, -0.570228, -0.000000, 0.000000 
1730384412.848868, -0.865714, -0.480897, -0.000000, 0.000000 
1740389678.778304, -0.911441, -0.387043, -0.000000, 0.000000 
1750394944.707741, -0.948208, -0.288766, 0.000000, 0.000000 
1760400210.637177, -0.975270, -0.186179, 0.000000, 0.000000 
1770405476.566614, -0.991414, -0.079863, 0.000000, -0.000000 
1780410742.496051, -0.995364, 0.028868, 0.000000, -0.000000 
1790416008.425487, -0.986265, 0.138010, -0.000000, -0.000000 
1800421274.354924, -0.964052, 0.245210, -0.000000, -0.000000 
1810426540.284360, -0.929526, 0.348271, -0.000000, 0.000000 
1820431806.213797, -0.884109, 0.445599, -0.000000, 0.000000 
1830437072.143233, -0.829370, 0.536405, -0.000000, 0.000000 
1840442338.072670, -0.766530, 0.620570, 0.000000, 0.000000 
1850447604.002106, -0.696165, 0.698219, 0.000000, 0.000000 
1860452869.931543, -0.618249, 0.769221, 0.000000, -0.000000 
1870458135.860980, -0.532515, 0.832812, 0.000000, -0.000000 
1880463401.790416, -0.438978, 0.887541, -0.000000, -0.000000 
1890468667.719852, -0.338384, 0.931573, -0.000000, -0.000000 
1900473933.649289, -0.232381, 0.963216, -0.000000, -0.000000 
1910479199.578726, -0.123310, 0.981459, -0.000000, 0.000000 
1920484465.508162, -0.013709, 0.986264, -0.000000, 0.000000 
1930489731.437599, 0.094281, 0.978495, 0.000000, 0.000000 
1940494997.367035, 0.199327, 0.959483, 0.000000, 0.000000 
1950500263.296472, 0.300954, 0.930428, 0.000000, -0.000000 
1960505529.225908, 0.399200, 0.891910, 0.000000, -0.000000 
1970510795.155345, 0.494037, 0.843726, -0.000000, -0.000000 
1980516061.084782, 0.584809, 0.785149, -0.000000, -0.000000 
1990521327.014218, 0.669969, 0.715491, -0.000000, -0.000000 
2000526592.943655, 0.747228, 0.634734, -0.000000, 0.000000 
2010531858.873091, 0.814089, 0.543928, -0.000000, 0.000000 
2020537124.802528, 0.868533, 0.445175, 0.000000, 0.000000 
2030542390.731964, 0.909556, 0.341171, 0.000000, 0.000000 
2040547656.661401, 0.937300, 0.234518, 0.000000, -0.000000 
2050552922.590837, 0.952724, 0.127082, 0.000000, -0.000000 
2060558188.520274, 0.956940, 0.019716, -0.000000, -0.000000 
2070563454.449710, 0.950518, -0.087533, -0.000000, -0.000000 
2080568720.379147, 0.933069, -0.194809, -0.000000, -0.000000 
2090573986.308583, 0.903326, -0.301688, -0.000000, 0.000000 
2100579252.238020, 0.859705, -0.406621, -0.000000, 0.000000 
2110584518.167457, 0.801119, -0.506847, 0.000000, 0.000000 
2120589784.096893, 0.727702, -0.598847, 0.000000, 0.000000 
2130595050.026330, 0.641096, -0.679175, 0.000000, -0.000000 
2140600315.955766, 0.544163, -0.745306, 0.000000, -0.000000 
2150605581.885203, 0.440218, -0.796116, 0.000000, -0.000000 
2160610847.814639, 0.332106, -0.831773, -0.000000, -0.000000 
2170616113.744076, 0.221565, -0.853027, -0.000000, -0.000000 
2180621379.673512, 0.109191, -0.860205, -0.000000, 0.000000 
2190626645.602949, -0.004859, -0.852347, -0.000000, 0.000000 
2200631911.532386, -0.119646, -0.826960, 0.000000, 0.000000 
2210637177.461822, -0.232168, -0.780656, 0.000000, 0.000000 
2220642443.391258, -0.336595, -0.710617, 0.000000, 0.000000 
2230647709.320695, -0.424490, -0.616476, 0.000000, -0.000000 
2240652975.250132, -0.486187, -0.501984, 0.000000, -0.000000 
2250658241.179568, -0.513085, -0.375778, -0.000000, -0.000000 
2260663507.109005, -0.500276, -0.250825, -0.000000, -0.000000 
2270668773.038442, -0.448718, -0.142434, -0.000000, 0.000000 
2280674038.967878, -0.366205, -0.065236, -0.000000, 0.000000 
2290679304.897314, -0.266681, -0.029886, 0.000000, 0.000000 
2300684570.826751, -0.167927, -0.040412, 0.000000, 0.000000 
2310689836.756187, -0.088164, -0.092986, 0.000000, 0.000000 
2320695102.685624, -0.042442, -0.176496, 0.000000, -0.000000 
2330700368.615061, -0.039769, -0.274754, 0.000000, -0.000000 
2340705634.544497, -0.081637, -0.369744, -0.000000, -0.000000 
2350710900.473934, -0.162250, -0.445077, -0.000000, -0.000000 
2360716166.403370, -0.270267, -0.488815, -0.000000, 0.000000 
2370721432.332807, -0.391530, -0.495069, -0.000000, 0.000000 
2380726698.262243, -0.512037, -0.464112, 0.000000, 0.000000 
2390731964.191680, -0.620415, -0.401134, 0.000000, 0.000000 
2400737230.121117, -0.709339, -0.314158, 0.000000, 0.000000 
2410742496.050553, -0.775708, -0.211770, 0.000000, -0.000000 
2420747761.979990, -0.819772, -0.101324, 0.000000, -0.000000 
2430753027.909426, -0.843677, 0.012001, -0.000000, -0.000000 
2440758293.838862, -0.849996, 0.125217, -0.000000, -0.000000 
2450763559.768299, -0.840697, 0.236869, -0.000000, 0.000000 
2460768825.697736, -0.816757, 0.346087, -0.000000, 0.000000 
2470774091.627172, -0.778386, 0.451777, -0.000000, 0.000000 
2480779357.556609, -0.725602, 0.552204, 0.000000, 0.000000 
2490784623.486045, -0.658854, 0.645061, 0.000000, 0.000000 
2500789889.415482, -0.579400, 0.727880, 0.000000, -0.000000 
2510795155.344918, -0.489330, 0.798564, 0.000000, -0.000000 
2520800421.274355, -0.391259, 0.855796, -0.000000, -0.000000 
2530805687.203792, -0.287855, 0.899167, -0.000000, -0.000000 
2540810953.133228, -0.181412, 0.929018, -0.000000, -0.000000 
2550816219.062665, -0.073604, 0.946070, -0.000000, 0.000000 
2560821484.992101, 0.034486, 0.951022, -0.000000, 0.000000 
2570826750.921537, 0.142131, 0.944264, 0.000000, 0.000000 
2580832016.850974, 0.248620, 0.925805, 0.000000, 0.000000 
2590837282.780411, 0.352961, 0.895414, 0.000000, -0.000000 
2600842548.709847, 0.453757, 0.852909, 0.000000, -0.000000 
2610847814.639284, 0.549269, 0.798443, -0.000000, -0.000000 
2620853080.568720, 0.637652, 0.732706, -0.000000, -0.000000 
2630858346.498157, 0.717255, 0.656928, -0.000000, -0.000000 
2640863612.427593, 0.786866, 0.572724, -0.000000, 0.000000 
2650868878.357030, 0.845819, 0.481821, -0.000000, 0.000000 
2660874144.286467, 0.893921, 0.385786, 0.000000, 0.000000 
2670879410.215903, 0.931246, 0.285855, 0.000000, 0.000000 
2680884676.145340, 0.957870, 0.182928, 0.000000, -0.000000 
2690889942.074776, 0.973682, 0.077715, 0.000000, -0.000000 
2700895208.004213, 0.978316, -0.029028, 0.000000, -0.000000 
2710900473.933649, 0.971268, -0.136281, -0.000000, -0.000000 
2720905739.863086, 0.952108, -0.242659, -0.000000, -0.000000 
2730911005.792522, 0.920731, -0.346477, -0.000000, 0.000000 
2740916271.721959, 0.877512, -0.445944, -0.000000, 0.000000 
2750921537.651396, 0.823315, -0.539431, 0.000000, 0.000000 
2760926803.580832, 0.759339, -0.625681, 0.000000, 0.000000 
2770932069.510269, 0.686874, -0.703889, 0.000000, -0.000000 
2780937335.439705, 0.607067, -0.773615, 0.000000, -0.000000 
2790942601.369142, 0.520794, -0.834583, 0.000000, -0.000000 
2800947867.298578, 0.428695, -0.886447, -0.000000, -0.000000 
2810953133.228015, 0.331344, -0.928649, -0.000000, -0.000000 
2820958399.157452, 0.229471, -0.960411, -0.000000, 0.000000 
2830963665.086888, 0.124138, -0.980886, -0.000000, 0.000000 
2840968931.016325, 0.016784, -0.989387, 0.000000, 0.000000 
2850974196.945761, -0.090890, -0.985601, 0.000000, 0.000000 
2860979462.875197, -0.197143, -0.969687, 0.000000, 0.000000 
2870984728.804634, -0.300426, -0.942222, 0.000000, -0.000000 
2880989994.734071, -0.399535, -0.904026, 0.000000, -0.000000 
2890995260.663507, -0.493619, -0.855930, -0.000000, -0.000000 
2901000526.592944, -0.582051, -0.798611, -0.000000, -0.000000 
2911005792.522380, -0.664233, -0.732543, -0.000000, 0.000000 
2921011058.451817, -0.739417, -0.658084, -0.000000, 0.000000 
2931016324.381253, -0.806638, -0.575664, 0.000000, 0.000000 
2941021590.310690, -0.864776, -0.485968, 0.000000, 0.000000 
2951026856.240127, -0.912730, -0.390042, 0.000000, 0.000000 
2961032122.169563, -0.949621, -0.289272, 0.000000, -0.000000 
2971037388.099000, -0.974946, -0.185241, 0.000000, -0.000000 
2981042654.028436, -0.988611, -0.079524, -0.000000, -0.000000 
2991047919.957872, -0.990845, 0.026487, -0.000000, -0.000000 
3001053185.887309, -0.982029, 0.131672, -0.000000, 0.000000 
3011058451.816746, -0.962524, 0.235141, -0.000000, 0.000000 
3021063717.746182, -0.932558, 0.336113, -0.000000, 0.000000 
3031068983.675619, -0.892233, 0.433743, 0.000000, 0.000000 
3041074249.605055, -0.841631, 0.527004, 0.000000, 0.000000 
3051079515.534492, -0.780984, 0.614664, 0.000000, -0.000000 
3061084781.463928, -0.710817, 0.695373, 0.000000, -0.000000 
3071090047.393365, -0.632019, 0.767831, -0.000000, -0.000000 
3081095313.322802, -0.545791, 0.830968, -0.000000, -0.000000 
3091100579.252238, -0.453510, 0.884058, -0.000000, 0.000000 
3101105845.181675, -0.356542, 0.926730, -0.000000, 0.000000 
3111111111.111111, -0.256096, 0.958879, -0.000000, 0.000000 
3121116377.040547, -0.153163, 0.980501, 0.000000, 0.000000 
3131121642.969984, -0.048572, 0.991536, 0.000000, 0.000000 
3141126908.899421, 0.056871, 0.991793, 0.000000, -0.000000 
3151132174.828857, 0.162221, 0.980974, 0.000000, -0.000000 
3161137440.758294, 0.266295, 0.958813, -0.000000, -0.000000 
3171142706.687730, 0.367673, 0.925245, -0.000000, -0.000000 
3181147972.617167, 0.464814, 0.880556, -0.000000, -0.000000 
3191153238.546604, 0.556247, 0.825423, -0.000000, 0.000000 
3201158504.476040, 0.640753, 0.760840, -0.000000, 0.000000 
3211163770.405477, 0.717459, 0.687946, 0.000000, 0.000000 
3221169036.334913, 0.785821, 0.607829, 0.000000, 0.000000 
3231174302.264350, 0.845482, 0.521400, 0.000000, -0.000000 
3241179568.193786, 0.896091, 0.429372, 0.000000, -0.000000 
3251184834.123223, 0.937160, 0.332378, 0.000000, -0.000000 
3261190100.052660, 0.968025, 0.231144, -0.000000, -0.000000 
3271195365.982096, 0.987946, 0.126654, -0.000000, -0.000000 
3281200631.911532, 0.996290, 0.020216, -0.000000, 0.000000 
3291205897.840969, 0.992724, -0.086605, -0.000000, 0.000000 
3301211163.770406, 0.977334, -0.192172, 0.000000, 0.000000 
3311216429.699842, 0.950602, -0.294982, 0.000000, 0.000000 
3321221695.629279, 0.913264, -0.393832, 0.000000, -0.000000 
3331226961.558715, 0.866105, -0.487847, 0.000000, -0.000000 
3341232227.488152, 0.809781, -0.576381, 0.000000, -0.000000 
3351237493.417588, 0.744759, -0.658830, -0.000000, -0.000000 
3361242759.347025, 0.671389, -0.734463, -0.000000, -0.000000 
3371248025.276461, 0.590080, -0.802330, -0.000000, 0.000000 
3381253291.205898, 0.501483, -0.861324, -0.000000, 0.000000 
3391258557.135334, 0.406613, -0.910348, 0.000000, 0.000000 
3401263823.064771, 0.306824, -0.948523, 0.000000, 0.000000 
3411269088.994207, 0.203665, -0.975347, 0.000000, 0.000000 
3421274354.923644, 0.098671, -0.990727, 0.000000, -0.000000 
3431279620.853081, -0.006822, -0.994884, 0.000000, -0.000000 
3441284886.782517, -0.111756, -0.988168, -0.000000, -0.000000 
3451290152.711954, -0.215298, -0.970872, -0.000000, -0.000000 
3461295418.641390, -0.316686, -0.943137, -0.000000, 0.000000 
3471300684.570827, -0.415051, -0.904977, -0.000000, 0.000000 
3481305950.500263, -0.509308, -0.856415, 0.000000, 0.000000 
3491311216.429700, -0.598154, -0.797675, 0.000000, 0.000000 
3501316482.359137, -0.680199, -0.729313, 0.000000, 0.000000 
3511321748.288573, -0.754152, -0.652266, 0.000000, -0.000000 
3521327014.218009, -0.818997, -0.567752, 0.000000, -0.000000 
3531332280.147446, -0.874081, -0.477110, -0.000000, -0.000000 
3541337546.076883, -0.919081, -0.381606, -0.000000, -0.000000 
3551342812.006319, -0.953871, -0.282321, -0.000000, 0.000000 
3561348077.935756, -0.978350, -0.180139, -0.000000, 0.000000 
3571353343.865192, -0.992322, -0.075847, 0.000000, 0.000000 
3581358609.794629, -0.995457, 0.029709, 0.000000, 0.000000 
3591363875.724065, -0.987380, 0.135489, 0.000000, 0.000000 
3601369141.653502, -0.967823, 0.240203, 0.000000, -0.000000 
3611374407.582939, -0.936785, 0.342369, 0.000000, -0.000000 
3621379673.512375, -0.894630, 0.440463, -0.000000, -0.000000 
3631384939.441812, -0.842074, 0.533094, -0.000000, -0.000000 
3641390205.371248, -0.780075, 0.619147, -0.000000, 0.000000 
3651395471.300684, -0.709659, 0.697820, -0.000000, 0.000000 
3661400737.230121, -0.631767, 0.768564, -0.000000, 0.000000 
3671406003.159558, -0.547183, 0.830933, 0.000000, 0.000000 
3681411269.088995, -0.456561, 0.884437, 0.000000, 0.000000 
3691416535.018431, -0.360556, 0.928449, 0.000000, -0.000000 
3701421800.947867, -0.259979, 0.962221, 0.000000, -0.000000 
3711427066.877304, -0.155909, 0.985000, -0.000000, -0.000000 
3721432332.806740, -0.049712, 0.996203, -0.000000, -0.000000 
3731437598.736177, 0.057054, 0.995568, -0.000000, 0.000000 
3741442864.665614, 0.162819, 0.983221, -0.000000, 0.000000 
3751448130.595050, 0.266178, 0.959626, -0.000000, 0.000000 
3761453396.524487, 0.366005, 0.925436, 0.000000, 0.000000 
3771458662.453923, 0.461449, 0.881311, 0.000000, 0.000000 
3781463928.383360, 0.551824, 0.827786, 0.000000, -0.000000 
3791469194.312796, 0.636435, 0.765244, 0.000000, -0.000000 
3801474460.242233, 0.714439, 0.694012, -0.000000, -0.000000 
3811479726.171669, 0.784798, 0.614524, -0.000000, -0.000000 
3821484992.101106, 0.846361, 0.527490, -0.000000, -0.000000 
3831490258.030542, 0.898032, 0.433977, -0.000000, 0.000000 
3841495523.959979, 0.938971, 0.335360, -0.000000, 0.000000 
3851500789.889416, 0.968717, 0.233163, 0.000000, 0.000000 
3861506055.818852, 0.987201, 0.128857, 0.000000, 0.000000 
3871511321.748289, 0.994619, 0.023696, 0.000000, -0.000000 
3881516587.677725, 0.991247, -0.081335, 0.000000, -0.000000 
3891521853.607162, 0.977272, -0.185438, 0.000000, -0.000000 
3901527119.536598, 0.952717, -0.287828, -0.000000, -0.000000 
3911532385.466035, 0.917500, -0.387569, -0.000000, -0.000000 
3921537651.395472, 0.871606, -0.483471, -0.000000, 0.000000 
3931542917.324908, 0.815266, -0.574141, -0.000000, 0.000000 
3941548183.254344, 0.749097, -0.658131, 0.000000, 0.000000 
3951553449.183781, 0.674096, -0.734155, 0.000000, 0.000000 
3961558715.113217, 0.591516, -0.801250, 0.000000, -0.000000 
3971563981.042654, 0.502663, -0.858837, 0.000000, -0.000000 
3981569246.972091, 0.408714, -0.906638, 0.000000, -0.000000 
3991574512.901527, 0.310623, -0.944506, -0.000000, -0.000000 
4001579778.830964, 0.209163, -0.972246, -0.000000, -0.000000 
4011585044.760400, 0.105077, -0.989507, -0.000000, 0.000000 
4021590310.689837, -0.000750, -0.995805, -0.000000, 0.000000 
4031595576.619273, -0.107164, -0.990660, 0.000000, 0.000000 
4041600842.548710, -0.212735, -0.973787, 0.000000, 0.000000 
4051606108.478147, -0.315881, -0.945250, 0.000000, -0.000000 
4061611374.407583, -0.415057, -0.905517, 0.000000, -0.000000 
4071616640.337019, -0.508941, -0.855380, 0.000000, -0.000000 
4081621906.266456, -0.596533, -0.795795, -0.000000, -0.000000 
