# stacked metamaterial geometry 
# f [Hz], L [0.001 m]
# Unitcell size lx, ly, lz = 20, 20, 299.792 at center position x = 0 y = 0 z = 0
# Definition of material properties: 
#name = FR4,Epsilon = 4.4,tand = 0.02,f0 = 5000000000,type = const,
#name = copper,type = const,EpsilonPlasmaFrequency = 250000000000000,EpsilonRelaxTime = 1.6e-13,Kappa = 56000000,
#name = copperRings,EpsilonPlasmaFrequency = 250000000000000,EpsilonRelaxTime = 1.6e-13,Kappa = 56000000,type = const,
#name = air,type = const,Epsilon = 1,
## layer number 1:
# rect patch made of copper lx, ly, lz = 20, 20, 0.5 at center position x = 0 y = 0 z = -0.25
# layer number 2:
# rect patch made of FR4 lx, ly, lz = 20, 20, 2 at center position x = 0 y = 0 z = -1.5
# layer number 3:
# circular rings made of copperRings at center position x = 0 y = 0 z = -2.525
# radius R1, R2=9.8, 5.1 ringwidths w1, w2=1.1, 0.5, background material air
# Re/Im parts of the scattering parameters S11 (refl.) and S21 (transm.) as a function of frequency 
# first column is frequency, second column is S11
# Parameters of Metamaterial are: 
1000000000.000000, 0.412016, -0.907305, 0.000000, -0.000000 
1010005265.929437, 0.315250, -0.947447, 0.000000, -0.000000 
1020010531.858873, 0.213593, -0.977672, 0.000000, -0.000000 
1030015797.788310, 0.108026, -0.996769, -0.000000, -0.000000 
1040021063.717746, 0.000082, -1.003716, -0.000000, -0.000000 
1050026329.647183, -0.108296, -0.997956, -0.000000, 0.000000 
1060031595.576619, -0.215020, -0.979564, -0.000000, 0.000000 
1070036861.506056, -0.318178, -0.949230, -0.000000, 0.000000 
1080042127.435492, -0.416288, -0.908090, 0.000000, 0.000000 
1090047393.364929, -0.508414, -0.857445, 0.000000, 0.000000 
1100052659.294365, -0.594123, -0.798464, 0.000000, 0.000000 
1110057925.223802, -0.673281, -0.731983, 0.000000, -0.000000 
1120063191.153239, -0.745783, -0.658434, 0.000000, -0.000000 
1130068457.082675, -0.811298, -0.577953, -0.000000, -0.000000 
1140073723.012112, -0.869111, -0.490602, -0.000000, -0.000000 
1150078988.941548, -0.918131, -0.396650, -0.000000, -0.000000 
1160084254.870985, -0.957047, -0.296800, -0.000000, 0.000000 
1170089520.800421, -0.984595, -0.192293, -0.000000, 0.000000 
1180094786.729858, -0.999843, -0.084857, -0.000000, 0.000000 
1190100052.659294, -1.002399, 0.023500, 0.000000, 0.000000 
1200105318.588731, -0.992488, 0.130770, 0.000000, 0.000000 
1210110584.518167, -0.970867, 0.235224, 0.000000, 0.000000 
1220115850.447604, -0.938606, 0.335605, 0.000000, -0.000000 
1230121116.377041, -0.896808, 0.431171, 0.000000, -0.000000 
1240126382.306477, -0.846348, 0.521579, -0.000000, -0.000000 
1250131648.235914, -0.787732, 0.606649, -0.000000, -0.000000 
1260136914.165350, -0.721102, 0.686096, -0.000000, -0.000000 
1270142180.094787, -0.646404, 0.759302, -0.000000, 0.000000 
1280147446.024223, -0.563646, 0.825233, -0.000000, 0.000000 
1290152711.953660, -0.473178, 0.882511, -0.000000, 0.000000 
1300157977.883096, -0.375879, 0.929633, 0.000000, 0.000000 
1310163243.812533, -0.273200, 0.965270, 0.000000, 0.000000 
1320168509.741970, -0.167039, 0.988546, 0.000000, -0.000000 
1330173775.671406, -0.059477, 0.999210, 0.000000, -0.000000 
1340179041.600842, 0.047536, 0.997644, 0.000000, -0.000000 
1350184307.530279, 0.152455, 0.984697, -0.000000, -0.000000 
1360189573.459716, 0.254280, 0.961403, -0.000000, -0.000000 
1370194839.389152, 0.352512, 0.928664, -0.000000, -0.000000 
1380200105.318589, 0.446945, 0.887024, -0.000000, 0.000000 
1390205371.248025, 0.537368, 0.836591, -0.000000, 0.000000 
1400210637.177462, 0.623278, 0.777153, 0.000000, 0.000000 
1410215903.106898, 0.703700, 0.708437, 0.000000, 0.000000 
1420221169.036335, 0.777196, 0.630427, 0.000000, 0.000000 
1430226434.965771, 0.842048, 0.543634, 0.000000, -0.000000 
1440231700.895208, 0.896573, 0.449226, 0.000000, -0.000000 
1450236966.824645, 0.939464, 0.348956, 0.000000, -0.000000 
1460242232.754081, 0.970044, 0.244915, -0.000000, -0.000000 
1470247498.683518, 0.988342, 0.139186, -0.000000, -0.000000 
1480252764.612954, 0.994970, 0.033508, -0.000000, 0.000000 
1490258030.542391, 0.990838, -0.070932, -0.000000, 0.000000 
1500263296.471827, 0.976809, -0.173511, -0.000000, 0.000000 
1510268562.401264, 0.953405, -0.273991, 0.000000, 0.000000 
1520273828.330700, 0.920677, -0.372212, 0.000000, 0.000000 
1530279094.260137, 0.878268, -0.467754, 0.000000, 0.000000 
1540284360.189574, 0.825661, -0.559710, 0.000000, -0.000000 
1550289626.119010, 0.762519, -0.646626, 0.000000, -0.000000 
1560294892.048447, 0.689008, -0.726653, 0.000000, -0.000000 
1570300157.977883, 0.605982, -0.797857, -0.000000, -0.000000 
1580305423.907320, 0.514966, -0.858587, -0.000000, -0.000000 
1590310689.836756, 0.417947, -0.907775, -0.000000, 0.000000 
1600315955.766193, 0.317023, -0.945078, -0.000000, 0.000000 
1610321221.695629, 0.214047, -0.970803, -0.000000, 0.000000 
1620326487.625066, 0.110370, -0.985653, 0.000000, 0.000000 
1630331753.554502, 0.006760, -0.990388, 0.000000, 0.000000 
1640337019.483939, -0.096460, -0.985494, 0.000000, 0.000000 
1650342285.413375, -0.199138, -0.970999, 0.000000, -0.000000 
1660347551.342812, -0.300941, -0.946473, 0.000000, -0.000000 
1670352817.272249, -0.401080, -0.911226, -0.000000, -0.000000 
1680358083.201685, -0.498190, -0.864640, -0.000000, -0.000000 
1690363349.131122, -0.590409, -0.806512, -0.000000, -0.000000 
1700368615.060558, -0.675653, -0.737302, -0.000000, 0.000000 
1710373880.989995, -0.751968, -0.658193, -0.000000, 0.000000 
1720379146.919431, -0.817882, -0.570951, -0.000000, 0.000000 
1730384412.848868, -0.872608, -0.477620, 0.000000, 0.000000 
1740389678.778304, -0.916071, -0.380152, 0.000000, 0.000000 
1750394944.707741, -0.948716, -0.280096, 0.000000, -0.000000 
1760400210.637177, -0.971197, -0.178429, 0.000000, -0.000000 
1770405476.566614, -0.984018, -0.075598, 0.000000, -0.000000 
1780410742.496051, -0.987265, 0.028252, -0.000000, -0.000000 
1790416008.425487, -0.980513, 0.132935, -0.000000, -0.000000 
1800421274.354924, -0.962941, 0.237884, -0.000000, -0.000000 
1810426540.284360, -0.933630, 0.341934, -0.000000, 0.000000 
1820431806.213797, -0.891933, 0.443304, -0.000000, 0.000000 
1830437072.143233, -0.837811, 0.539788, 0.000000, 0.000000 
1840442338.072670, -0.772009, 0.629108, 0.000000, 0.000000 
1850447604.002106, -0.696022, 0.709313, 0.000000, 0.000000 
1860452869.931543, -0.611844, 0.779103, 0.000000, -0.000000 
1870458135.860980, -0.521583, 0.837976, 0.000000, -0.000000 
1880463401.790416, -0.427054, 0.886131, 0.000000, -0.000000 
1890468667.719852, -0.329491, 0.924175, -0.000000, -0.000000 
1900473933.649289, -0.229469, 0.952716, -0.000000, -0.000000 
1910479199.578726, -0.127071, 0.971977, -0.000000, -0.000000 
1920484465.508162, -0.022245, 0.981575, -0.000000, 0.000000 
1930489731.437599, 0.084767, 0.980535, -0.000000, 0.000000 
1940494997.367035, 0.193074, 0.967560, 0.000000, 0.000000 
1950500263.296472, 0.300985, 0.941451, 0.000000, 0.000000 
1960505529.225908, 0.406125, 0.901573, 0.000000, 0.000000 
1970510795.155345, 0.505786, 0.848180, 0.000000, -0.000000 
1980516061.084782, 0.597424, 0.782511, 0.000000, -0.000000 
1990521327.014218, 0.679136, 0.706584, 0.000000, -0.000000 
2000526592.943655, 0.749950, 0.622770, -0.000000, -0.000000 
2010531858.873091, 0.809841, 0.533257, -0.000000, -0.000000 
2020537124.802528, 0.859440, 0.439604, -0.000000, 0.000000 
2030542390.731964, 0.899537, 0.342522, -0.000000, 0.000000 
2040547656.661401, 0.930544, 0.241981, -0.000000, 0.000000 
2050552922.590837, 0.952107, 0.137606, 0.000000, 0.000000 
2060558188.520274, 0.962998, 0.029240, 0.000000, 0.000000 
2070563454.449710, 0.961356, -0.082509, 0.000000, 0.000000 
2080568720.379147, 0.945214, -0.195939, 0.000000, -0.000000 
2090573986.308583, 0.913137, -0.308260, 0.000000, -0.000000 
2100579252.238020, 0.864785, -0.415978, -0.000000, -0.000000 
2110584518.167457, 0.801177, -0.515526, -0.000000, -0.000000 
2120589784.096893, 0.724562, -0.603974, -0.000000, -0.000000 
2130595050.026330, 0.637917, -0.679549, -0.000000, 0.000000 
2140600315.955766, 0.544220, -0.741798, -0.000000, 0.000000 
2150605581.885203, 0.445739, -0.791300, -0.000000, 0.000000 
2160610847.814639, 0.343603, -0.829011, 0.000000, 0.000000 
2170616113.744076, 0.237819, -0.855431, 0.000000, 0.000000 
2180621379.673512, 0.127798, -0.869881, 0.000000, -0.000000 
2190626645.602949, 0.013278, -0.870170, 0.000000, -0.000000 
2200631911.532386, -0.104626, -0.852847, 0.000000, -0.000000 
2210637177.461822, -0.222569, -0.814051, -0.000000, -0.000000 
2220642443.391258, -0.334650, -0.750823, -0.000000, -0.000000 
2230647709.320695, -0.432824, -0.662546, -0.000000, -0.000000 
2240652975.250132, -0.508067, -0.552109, -0.000000, 0.000000 
2250658241.179568, -0.552099, -0.426439, -0.000000, 0.000000 
2260663507.109005, -0.559301, -0.296140, 0.000000, 0.000000 
2270668773.038442, -0.528380, -0.174227, 0.000000, 0.000000 
2280674038.967878, -0.463348, -0.074117, 0.000000, 0.000000 
2290679304.897314, -0.373509, -0.007290, 0.000000, -0.000000 
2300684570.826751, -0.272379, 0.018919, 0.000000, -0.000000 
2310689836.756187, -0.175677, 0.002867, 0.000000, -0.000000 
2320695102.685624, -0.098789, -0.050862, -0.000000, -0.000000 
2330700368.615061, -0.054223, -0.132088, -0.000000, -0.000000 
2340705634.544497, -0.049591, -0.226707, -0.000000, 0.000000 
2350710900.473934, -0.086521, -0.319039, -0.000000, 0.000000 
2360716166.403370, -0.160687, -0.394363, -0.000000, 0.000000 
2370721432.332807, -0.262877, -0.441122, 0.000000, 0.000000 
2380726698.262243, -0.380827, -0.452404, 0.000000, 0.000000 
2390731964.191680, -0.501408, -0.426471, 0.000000, 0.000000 
2400737230.121117, -0.612705, -0.366332, 0.000000, -0.000000 
2410742496.050553, -0.705603, -0.278532, 0.000000, -0.000000 
2420747761.979990, -0.774625, -0.171499, 0.000000, -0.000000 
2430753027.909426, -0.817937, -0.053839, -0.000000, -0.000000 
2440758293.838862, -0.836663, 0.067039, -0.000000, -0.000000 
2450763559.768299, -0.833763, 0.185742, -0.000000, 0.000000 
2460768825.697736, -0.812823, 0.299051, -0.000000, 0.000000 
2470774091.627172, -0.777068, 0.405536, -0.000000, 0.000000 
2480779357.556609, -0.728783, 0.504839, 0.000000, 0.000000 
2490784623.486045, -0.669219, 0.596898, 0.000000, 0.000000 
2500789889.415482, -0.598878, 0.681329, 0.000000, 0.000000 
2510795155.344918, -0.518018, 0.757136, 0.000000, -0.000000 
2520800421.274355, -0.427168, 0.822755, 0.000000, -0.000000 
2530805687.203792, -0.327483, 0.876358, -0.000000, -0.000000 
2540810953.133228, -0.220843, 0.916285, -0.000000, -0.000000 
2550816219.062665, -0.109694, 0.941424, -0.000000, -0.000000 
2560821484.992101, 0.003283, 0.951434, -0.000000, 0.000000 
2570826750.921537, 0.115550, 0.946740, -0.000000, 0.000000 
2580832016.850974, 0.225012, 0.928341, -0.000000, 0.000000 
2590837282.780411, 0.330153, 0.897512, 0.000000, 0.000000 
2600842548.709847, 0.429998, 0.855497, 0.000000, 0.000000 
2610847814.639284, 0.523928, 0.803302, 0.000000, -0.000000 
2620853080.568720, 0.611439, 0.741626, 0.000000, -0.000000 
2630858346.498157, 0.691927, 0.670939, 0.000000, -0.000000 
2640863612.427593, 0.764560, 0.591655, -0.000000, -0.000000 
2650868878.357030, 0.828285, 0.504330, -0.000000, -0.000000 
2660874144.286467, 0.881939, 0.409817, -0.000000, -0.000000 
2670879410.215903, 0.924424, 0.309329, -0.000000, 0.000000 
2680884676.145340, 0.954881, 0.204396, -0.000000, 0.000000 
2690889942.074776, 0.972814, 0.096738, 0.000000, 0.000000 
2700895208.004213, 0.978122, -0.011898, 0.000000, 0.000000 
2710900473.933649, 0.971056, -0.119881, 0.000000, 0.000000 
2720905739.863086, 0.952110, -0.225798, 0.000000, -0.000000 
2730911005.792522, 0.921893, -0.328472, 0.000000, -0.000000 
2740916271.721959, 0.881024, -0.426924, 0.000000, -0.000000 
2750921537.651396, 0.830070, -0.520290, -0.000000, -0.000000 
2760926803.580832, 0.769548, -0.607727, -0.000000, -0.000000 
2770932069.510269, 0.699976, -0.688351, -0.000000, 0.000000 
2780937335.439705, 0.621950, -0.761211, -0.000000, 0.000000 
2790942601.369142, 0.536215, -0.825321, -0.000000, 0.000000 
2800947867.298578, 0.443718, -0.879725, 0.000000, 0.000000 
2810953133.228015, 0.345610, -0.923582, 0.000000, 0.000000 
2820958399.157452, 0.243208, -0.956241, 0.000000, 0.000000 
2830963665.086888, 0.137923, -0.977291, 0.000000, -0.000000 
2840968931.016325, 0.031187, -0.986572, 0.000000, -0.000000 
2850974196.945761, -0.075633, -0.984142, 0.000000, -0.000000 
2860979462.875197, -0.181268, -0.970231, -0.000000, -0.000000 
2870984728.804634, -0.284567, -0.945172, -0.000000, -0.000000 
2880989994.734071, -0.384474, -0.909353, -0.000000, 0.000000 
2890995260.663507, -0.479989, -0.863194, -0.000000, 0.000000 
2901000526.592944, -0.570125, -0.807151, -0.000000, 0.000000 
2911005792.522380, -0.653886, -0.741748, 0.000000, 0.000000 
2921011058.451817, -0.730270, -0.667622, 0.000000, 0.000000 
2931016324.381253, -0.798296, -0.585556, 0.000000, 0.000000 
2941021590.310690, -0.857060, -0.496494, 0.000000, -0.000000 
2951026856.240127, -0.905782, -0.401534, 0.000000, -0.000000 
2961032122.169563, -0.943858, -0.301881, -0.000000, -0.000000 
2971037388.099000, -0.970873, -0.198799, -0.000000, -0.000000 
2981042654.028436, -0.986595, -0.093556, -0.000000, -0.000000 
2991047919.957872, -0.990949, 0.012612, -0.000000, 0.000000 
3001053185.887309, -0.983977, 0.118519, -0.000000, 0.000000 
3011058451.816746, -0.965812, 0.223019, -0.000000, 0.000000 
3021063717.746182, -0.936664, 0.324992, 0.000000, 0.000000 
3031068983.675619, -0.896827, 0.423321, 0.000000, 0.000000 
3041074249.605055, -0.846700, 0.516893, 0.000000, 0.000000 
3051079515.534492, -0.786812, 0.604609, 0.000000, -0.000000 
3061084781.463928, -0.717832, 0.685418, 0.000000, -0.000000 
3071090047.393365, -0.640572, 0.758352, -0.000000, -0.000000 
3081095313.322802, -0.555956, 0.822554, -0.000000, -0.000000 
3091100579.252238, -0.464999, 0.877303, -0.000000, -0.000000 
3101105845.181675, -0.368767, 0.922009, -0.000000, 0.000000 
3111111111.111111, -0.268356, 0.956201, -0.000000, 0.000000 
3121116377.040547, -0.164887, 0.979514, -0.000000, 0.000000 
3131121642.969984, -0.059507, 0.991682, 0.000000, 0.000000 
3141126908.899421, 0.046600, 0.992539, 0.000000, 0.000000 
3151132174.828857, 0.152217, 0.982042, 0.000000, -0.000000 
3161137440.758294, 0.256105, 0.960290, 0.000000, -0.000000 
3171142706.687730, 0.357033, 0.927537, 0.000000, -0.000000 
3181147972.617167, 0.453814, 0.884201, -0.000000, -0.000000 
3191153238.546604, 0.545341, 0.830836, -0.000000, -0.000000 
3201158504.476040, 0.630607, 0.768110, -0.000000, -0.000000 
3211163770.405477, 0.708710, 0.696766, -0.000000, 0.000000 
3221169036.334913, 0.778837, 0.617598, -0.000000, 0.000000 
3231174302.264350, 0.840244, 0.531446, 0.000000, 0.000000 
3241179568.193786, 0.892240, 0.439206, 0.000000, 0.000000 
3251184834.123223, 0.934187, 0.341855, 0.000000, 0.000000 
3261190100.052660, 0.965524, 0.240466, 0.000000, -0.000000 
3271195365.982096, 0.985804, 0.136217, 0.000000, -0.000000 
3281200631.911532, 0.994739, 0.030373, 0.000000, -0.000000 
3291205897.840969, 0.992224, -0.075762, -0.000000, -0.000000 
3301211163.770406, 0.978350, -0.180894, -0.000000, -0.000000 
3311216429.699842, 0.953378, -0.283788, -0.000000, 0.000000 
3321221695.629279, 0.917707, -0.383307, -0.000000, 0.000000 
3331226961.558715, 0.871819, -0.478410, -0.000000, 0.000000 
3341232227.488152, 0.816250, -0.568141, 0.000000, 0.000000 
3351237493.417588, 0.751573, -0.651590, 0.000000, 0.000000 
3361242759.347025, 0.678411, -0.727870, 0.000000, 0.000000 
3371248025.276461, 0.597469, -0.796101, 0.000000, -0.000000 
3381253291.205898, 0.509571, -0.855426, 0.000000, -0.000000 
3391258557.135334, 0.415683, -0.905050, -0.000000, -0.000000 
3401263823.064771, 0.316914, -0.944293, -0.000000, -0.000000 
3411269088.994207, 0.214487, -0.972637, -0.000000, -0.000000 
3421274354.923644, 0.109691, -0.989763, -0.000000, 0.000000 
3431279620.853081, 0.003818, -0.995546, -0.000000, 0.000000 
3441284886.782517, -0.101885, -0.990040, -0.000000, 0.000000 
3451290152.711954, -0.206248, -0.973432, 0.000000, 0.000000 
3461295418.641390, -0.308178, -0.945999, 0.000000, 0.000000 
3471300684.570827, -0.406647, -0.908075, 0.000000, -0.000000 
3481305950.500263, -0.500656, -0.860043, 0.000000, -0.000000 
3491311216.429700, -0.589213, -0.802340, 0.000000, -0.000000 
3501316482.359137, -0.671318, -0.735496, -0.000000, -0.000000 
3511321748.288573, -0.745975, -0.660160, -0.000000, -0.000000 
3521327014.218009, -0.812226, -0.577132, -0.000000, -0.000000 
3531332280.147446, -0.869199, -0.487367, -0.000000, 0.000000 
3541337546.076883, -0.916154, -0.391960, -0.000000, 0.000000 
3551342812.006319, -0.952520, -0.292109, 0.000000, 0.000000 
3561348077.935756, -0.977918, -0.189064, 0.000000, 0.000000 
3571353343.865192, -0.992151, -0.084076, 0.000000, 0.000000 
3581358609.794629, -0.995181, 0.021644, 0.000000, -0.000000 
3591363875.724065, -0.987091, 0.126945, 0.000000, -0.000000 
3601369141.653502, -0.968047, 0.230739, 0.000000, -0.000000 
3611374407.582939, -0.938273, 0.331980, -0.000000, -0.000000 
3621379673.512375, -0.898042, 0.429639, -0.000000, -0.000000 
3631384939.441812, -0.847692, 0.522672, -0.000000, -0.000000 
3641390205.371248, -0.787657, 0.610020, -0.000000, 0.000000 
3651395471.300684, -0.718504, 0.690610, -0.000000, 0.000000 
3661400737.230121, -0.640964, 0.763396, 0.000000, 0.000000 
3671406003.159558, -0.555945, 0.827410, 0.000000, 0.000000 
3681411269.088995, -0.464517, 0.881822, 0.000000, 0.000000 
3691416535.018431, -0.367864, 0.925983, 0.000000, -0.000000 
3701421800.947867, -0.267230, 0.959450, 0.000000, -0.000000 
3711427066.877304, -0.163851, 0.981976, 0.000000, -0.000000 
3721432332.806740, -0.058902, 0.993476, -0.000000, -0.000000 
3731437598.736177, 0.046515, 0.993968, -0.000000, -0.000000 
3741442864.665614, 0.151367, 0.983522, -0.000000, 0.000000 
3751448130.595050, 0.254648, 0.962233, -0.000000, 0.000000 
3761453396.524487, 0.355327, 0.930219, -0.000000, 0.000000 
3771458662.453923, 0.452313, 0.887661, 0.000000, 0.000000 
3781463928.383360, 0.544446, 0.834856, 0.000000, 0.000000 
3791469194.312796, 0.630526, 0.772284, 0.000000, 0.000000 
3801474460.242233, 0.709379, 0.700642, 0.000000, -0.000000 
3811479726.171669, 0.779938, 0.620847, 0.000000, -0.000000 
3821484992.101106, 0.841317, 0.533989, -0.000000, -0.000000 
3831490258.030542, 0.892854, 0.441261, -0.000000, -0.000000 
3841495523.959979, 0.934116, 0.343868, -0.000000, -0.000000 
3851500789.889416, 0.964847, 0.242957, -0.000000, 0.000000 
3861506055.818852, 0.984905, 0.139590, -0.000000, 0.000000 
3871511321.748289, 0.994188, 0.034749, -0.000000, 0.000000 
3881516587.677725, 0.992592, -0.070605, 0.000000, 0.000000 
3891521853.607162, 0.980004, -0.175471, 0.000000, 0.000000 
3901527119.536598, 0.956352, -0.278749, 0.000000, -0.000000 
3911532385.466035, 0.921675, -0.379219, 0.000000, -0.000000 
3921537651.395472, 0.876201, -0.475576, 0.000000, -0.000000 
3931542917.324908, 0.820404, -0.566496, -0.000000, -0.000000 
3941548183.254344, 0.755010, -0.650735, -0.000000, -0.000000 
3951553449.183781, 0.680961, -0.727213, -0.000000, -0.000000 
3961558715.113217, 0.599327, -0.795072, -0.000000, 0.000000 
3971563981.042654, 0.511224, -0.853684, -0.000000, 0.000000 
3981569246.972091, 0.417724, -0.902604, -0.000000, 0.000000 
3991574512.901527, 0.319828, -0.941504, 0.000000, 0.000000 
4001579778.830964, 0.218467, -0.970096, 0.000000, 0.000000 
4011585044.760400, 0.114555, -0.988084, 0.000000, -0.000000 
4021590310.689837, 0.009058, -0.995158, 0.000000, -0.000000 
4031595576.619273, -0.096945, -0.991029, 0.000000, -0.000000 
4041600842.548710, -0.202240, -0.975504, -0.000000, -0.000000 
4051606108.478147, -0.305487, -0.948567, -0.000000, -0.000000 
4061611374.407583, -0.405292, -0.910441, -0.000000, -0.000000 
4071616640.337019, -0.500294, -0.861610, -0.000000, 0.000000 
4081621906.266456, -0.589250, -0.802796, -0.000000, 0.000000 
