# stacked metamaterial geometry 
# f [Hz], L [0.001 m]
# Unitcell size lx, ly, lz = 20, 20, 299.792 at center position x = 0 y = 0 z = 0
# Definition of material properties: 
#name = FR4,Epsilon = 4.4,tand = 0.02,f0 = 5000000000,type = const,
#name = copper,type = const,EpsilonPlasmaFrequency = 250000000000000,EpsilonRelaxTime = 1.6e-13,Kappa = 56000000,
#name = copperRings,EpsilonPlasmaFrequency = 250000000000000,EpsilonRelaxTime = 1.6e-13,Kappa = 56000000,type = const,
#name = air,type = const,Epsilon = 1,
## layer number 1:
# rect patch made of copper lx, ly, lz = 20, 20, 0.5 at center position x = 0 y = 0 z = -0.25
# layer number 2:
# rect patch made of FR4 lx, ly, lz = 20, 20, 2 at center position x = 0 y = 0 z = -1.5
# layer number 3:
# circular rings made of copperRings at center position x = 0 y = 0 z = -2.525
# radius R1, R2=9.8, 5.1 ringwidths w1, w2=1.3, 0.5, background material air
# Re/Im parts of the scattering parameters S11 (refl.) and S21 (transm.) as a function of frequency 
# first column is frequency, second column is S11
# Parameters of Metamaterial are: 
1000000000.000000, 0.410822, -0.911269, 0.000000, -0.000000 
1010005265.929437, 0.312017, -0.950158, -0.000000, -0.000000 
1020010531.858873, 0.209330, -0.978173, -0.000000, -0.000000 
1030015797.788310, 0.104131, -0.994814, -0.000000, -0.000000 
1040021063.717746, -0.002119, -0.999888, -0.000000, 0.000000 
1050026329.647183, -0.108010, -0.993500, -0.000000, 0.000000 
1060031595.576619, -0.212283, -0.975980, 0.000000, 0.000000 
1070036861.506056, -0.313869, -0.947762, 0.000000, 0.000000 
1080042127.435492, -0.411849, -0.909288, 0.000000, -0.000000 
1090047393.364929, -0.505369, -0.860954, 0.000000, -0.000000 
1100052659.294365, -0.593550, -0.803128, 0.000000, -0.000000 
1110057925.223802, -0.675431, -0.736224, -0.000000, -0.000000 
1120063191.153239, -0.749980, -0.660791, -0.000000, -0.000000 
1130068457.082675, -0.816151, -0.577581, -0.000000, 0.000000 
1140073723.012112, -0.872985, -0.487577, -0.000000, 0.000000 
1150078988.941548, -0.919700, -0.391950, -0.000000, 0.000000 
1160084254.870985, -0.955748, -0.291984, 0.000000, 0.000000 
1170089520.800421, -0.980829, -0.188981, 0.000000, 0.000000 
1180094786.729858, -0.994847, -0.084184, 0.000000, -0.000000 
1190100052.659294, -0.997844, 0.021272, 0.000000, -0.000000 
1200105318.588731, -0.989926, 0.126352, -0.000000, -0.000000 
1210110584.518167, -0.971204, 0.230082, -0.000000, -0.000000 
1220115850.447604, -0.941786, 0.331478, -0.000000, -0.000000 
1230121116.377041, -0.901809, 0.429493, -0.000000, 0.000000 
1240126382.306477, -0.851507, 0.522984, -0.000000, 0.000000 
1250131648.235914, -0.791287, 0.610739, 0.000000, 0.000000 
1260136914.165350, -0.721794, 0.691541, 0.000000, 0.000000 
1270142180.094787, -0.643921, 0.764270, 0.000000, 0.000000 
1280147446.024223, -0.558762, 0.828004, 0.000000, -0.000000 
1290152711.953660, -0.467521, 0.882071, 0.000000, -0.000000 
1300157977.883096, -0.371397, 0.926056, -0.000000, -0.000000 
1310163243.812533, -0.271491, 0.959729, -0.000000, -0.000000 
1320168509.741970, -0.168775, 0.982939, -0.000000, 0.000000 
1330173775.671406, -0.064137, 0.995514, -0.000000, 0.000000 
1340179041.600842, 0.041524, 0.997216, -0.000000, 0.000000 
1350184307.530279, 0.147184, 0.987769, 0.000000, 0.000000 
1360189573.459716, 0.251627, 0.966964, 0.000000, 0.000000 
1370194839.389152, 0.353457, 0.934795, 0.000000, -0.000000 
1380200105.318589, 0.451198, 0.891566, 0.000000, -0.000000 
1390205371.248025, 0.543446, 0.837925, 0.000000, -0.000000 
1400210637.177462, 0.629022, 0.774795, -0.000000, -0.000000 
1410215903.106898, 0.707051, 0.703227, -0.000000, -0.000000 
1420221169.036335, 0.776940, 0.624240, -0.000000, 0.000000 
1430226434.965771, 0.838265, 0.538709, -0.000000, 0.000000 
1440231700.895208, 0.890611, 0.447356, 0.000000, 0.000000 
1450236966.824645, 0.933453, 0.350837, 0.000000, 0.000000 
1460242232.754081, 0.966120, 0.249902, 0.000000, 0.000000 
1470247498.683518, 0.987882, 0.145537, 0.000000, -0.000000 
1480252764.612954, 0.998105, 0.039024, 0.000000, -0.000000 
1490258030.542391, 0.996431, -0.068110, -0.000000, -0.000000 
1500263296.471827, 0.982888, -0.174248, -0.000000, -0.000000 
1510268562.401264, 0.957887, -0.277880, -0.000000, -0.000000 
1520273828.330700, 0.922106, -0.377752, -0.000000, 0.000000 
1530279094.260137, 0.876305, -0.472917, -0.000000, 0.000000 
1540284360.189574, 0.821165, -0.562664, 0.000000, 0.000000 
1550289626.119010, 0.757206, -0.646368, 0.000000, 0.000000 
1560294892.048447, 0.684822, -0.723318, 0.000000, -0.000000 
1570300157.977883, 0.604424, -0.792628, 0.000000, -0.000000 
1580305423.907320, 0.516606, -0.853246, 0.000000, -0.000000 
1590310689.836756, 0.422275, -0.904075, -0.000000, -0.000000 
1600315955.766193, 0.322677, -0.944166, -0.000000, -0.000000 
1610321221.695629, 0.219308, -0.972873, -0.000000, 0.000000 
1620326487.625066, 0.113736, -0.989942, -0.000000, 0.000000 
1630331753.554502, 0.007425, -0.995470, -0.000000, 0.000000 
1640337019.483939, -0.098391, -0.989782, 0.000000, 0.000000 
1650342285.413375, -0.202725, -0.973255, 0.000000, 0.000000 
1660347551.342812, -0.304755, -0.946189, 0.000000, -0.000000 
1670352817.272249, -0.403676, -0.908751, 0.000000, -0.000000 
1680358083.201685, -0.498561, -0.861036, 0.000000, -0.000000 
1690363349.131122, -0.588288, -0.803197, -0.000000, -0.000000 
1700368615.060558, -0.671565, -0.735600, -0.000000, -0.000000 
1710373880.989995, -0.747053, -0.658934, -0.000000, 0.000000 
1720379146.919431, -0.813527, -0.574236, -0.000000, 0.000000 
1730384412.848868, -0.870032, -0.482811, 0.000000, 0.000000 
1740389678.778304, -0.915963, -0.386085, 0.000000, 0.000000 
1750394944.707741, -0.951050, -0.285439, 0.000000, 0.000000 
1760400210.637177, -0.975259, -0.182085, 0.000000, -0.000000 
1770405476.566614, -0.988638, -0.077025, 0.000000, -0.000000 
1780410742.496051, -0.991180, 0.028884, -0.000000, -0.000000 
1790416008.425487, -0.982754, 0.134810, -0.000000, -0.000000 
1800421274.354924, -0.963132, 0.239789, -0.000000, 0.000000 
1810426540.284360, -0.932107, 0.342629, -0.000000, 0.000000 
1820431806.213797, -0.889662, 0.441900, -0.000000, 0.000000 
1830437072.143233, -0.836114, 0.536027, 0.000000, 0.000000 
1840442338.072670, -0.772192, 0.623469, 0.000000, 0.000000 
1850447604.002106, -0.698990, 0.702910, 0.000000, -0.000000 
1860452869.931543, -0.617818, 0.773398, 0.000000, -0.000000 
1870458135.860980, -0.530000, 0.834374, 0.000000, -0.000000 
1880463401.790416, -0.436690, 0.885575, -0.000000, -0.000000 
1890468667.719852, -0.338787, 0.926846, -0.000000, -0.000000 
1900473933.649289, -0.236987, 0.957940, -0.000000, 0.000000 
1910479199.578726, -0.131949, 0.978391, -0.000000, 0.000000 
1920484465.508162, -0.024517, 0.987530, 0.000000, 0.000000 
1930489731.437599, 0.084110, 0.984638, 0.000000, 0.000000 
1940494997.367035, 0.192335, 0.969192, 0.000000, 0.000000 
1950500263.296472, 0.298287, 0.941097, 0.000000, -0.000000 
1960505529.225908, 0.400065, 0.900811, 0.000000, -0.000000 
1970510795.155345, 0.496025, 0.849292, -0.000000, -0.000000 
1980516061.084782, 0.584987, 0.787788, -0.000000, -0.000000 
1990521327.014218, 0.666262, 0.717536, -0.000000, -0.000000 
2000526592.943655, 0.739499, 0.639508, -0.000000, 0.000000 
2010531858.873091, 0.804401, 0.554311, -0.000000, 0.000000 
2020537124.802528, 0.860440, 0.462294, 0.000000, 0.000000 
2030542390.731964, 0.906695, 0.363811, 0.000000, 0.000000 
2040547656.661401, 0.941904, 0.259549, 0.000000, -0.000000 
2050552922.590837, 0.964716, 0.150763, 0.000000, -0.000000 
2060558188.520274, 0.974053, 0.039307, 0.000000, -0.000000 
2070563454.449710, 0.969432, -0.072566, -0.000000, -0.000000 
2080568720.379147, 0.951108, -0.182572, -0.000000, -0.000000 
2090573986.308583, 0.919966, -0.288780, -0.000000, 0.000000 
2100579252.238020, 0.877193, -0.389857, -0.000000, 0.000000 
2110584518.167457, 0.823875, -0.485057, -0.000000, 0.000000 
2120589784.096893, 0.760681, -0.573961, 0.000000, 0.000000 
2130595050.026330, 0.687777, -0.656069, 0.000000, 0.000000 
2140600315.955766, 0.605029, -0.730407, 0.000000, -0.000000 
2150605581.885203, 0.512424, -0.795350, 0.000000, -0.000000 
2160610847.814639, 0.410533, -0.848728, -0.000000, -0.000000 
2170616113.744076, 0.300839, -0.888230, -0.000000, -0.000000 
2180621379.673512, 0.185763, -0.911930, -0.000000, -0.000000 
2190626645.602949, 0.068354, -0.918752, -0.000000, 0.000000 
2200631911.532386, -0.048233, -0.908650, -0.000000, 0.000000 
2210637177.461822, -0.161278, -0.882442, 0.000000, 0.000000 
2220642443.391258, -0.268809, -0.841320, 0.000000, 0.000000 
2230647709.320695, -0.369526, -0.786260, 0.000000, 0.000000 
2240652975.250132, -0.462316, -0.717587, 0.000000, -0.000000 
2250658241.179568, -0.545516, -0.634958, 0.000000, -0.000000 
2260663507.109005, -0.616219, -0.537876, -0.000000, -0.000000 
2270668773.038442, -0.669971, -0.426680, -0.000000, -0.000000 
2280674038.967878, -0.701132, -0.303716, -0.000000, 0.000000 
2290679304.897314, -0.703965, -0.174273, -0.000000, 0.000000 
2300684570.826751, -0.674281, -0.046876, -0.000000, 0.000000 
2310689836.756187, -0.611236, 0.067370, 0.000000, 0.000000 
2320695102.685624, -0.518736, 0.156400, 0.000000, 0.000000 
2330700368.615061, -0.405947, 0.209525, 0.000000, -0.000000 
2340705634.544497, -0.286573, 0.219930, 0.000000, -0.000000 
2350710900.473934, -0.176901, 0.186689, 0.000000, -0.000000 
2360716166.403370, -0.092968, 0.115665, -0.000000, -0.000000 
2370721432.332807, -0.047532, 0.018959, -0.000000, -0.000000 
2380726698.262243, -0.047575, -0.087024, -0.000000, 0.000000 
2390731964.191680, -0.092985, -0.184472, -0.000000, 0.000000 
2400737230.121117, -0.176700, -0.257320, 0.000000, 0.000000 
2410742496.050553, -0.286252, -0.293947, 0.000000, 0.000000 
2420747761.979990, -0.406288, -0.288833, 0.000000, 0.000000 
2430753027.909426, -0.521463, -0.242866, 0.000000, -0.000000 
2440758293.838862, -0.619033, -0.162345, 0.000000, -0.000000 
2450763559.768299, -0.690563, -0.056996, -0.000000, -0.000000 
2460768825.697736, -0.732456, 0.062391, -0.000000, -0.000000 
2470774091.627172, -0.745329, 0.186083, -0.000000, -0.000000 
2480779357.556609, -0.732594, 0.306780, -0.000000, 0.000000 
2490784623.486045, -0.698771, 0.420025, -0.000000, 0.000000 
2500789889.415482, -0.648074, 0.523751, 0.000000, 0.000000 
2510795155.344918, -0.583597, 0.617324, 0.000000, 0.000000 
2520800421.274355, -0.507212, 0.700496, 0.000000, -0.000000 
2530805687.203792, -0.420004, 0.772655, 0.000000, -0.000000 
2540810953.133228, -0.322958, 0.832565, 0.000000, -0.000000 
2550816219.062665, -0.217543, 0.878579, -0.000000, -0.000000 
2560821484.992101, -0.105992, 0.909138, -0.000000, -0.000000 
2570826750.921537, 0.008825, 0.923297, -0.000000, 0.000000 
2580832016.850974, 0.123808, 0.921040, -0.000000, 0.000000 
2590837282.780411, 0.236135, 0.903276, -0.000000, 0.000000 
2600842548.709847, 0.343648, 0.871542, 0.000000, 0.000000 
2610847814.639284, 0.444989, 0.827562, 0.000000, 0.000000 
2620853080.568720, 0.539455, 0.772840, 0.000000, -0.000000 
2630858346.498157, 0.626674, 0.708428, 0.000000, -0.000000 
2640863612.427593, 0.706228, 0.634943, -0.000000, -0.000000 
2650868878.357030, 0.777399, 0.552789, -0.000000, -0.000000 
2660874144.286467, 0.839096, 0.462477, -0.000000, -0.000000 
2670879410.215903, 0.890011, 0.364899, -0.000000, 0.000000 
2680884676.145340, 0.928889, 0.261456, -0.000000, 0.000000 
2690889942.074776, 0.954822, 0.153990, 0.000000, 0.000000 
2700895208.004213, 0.967443, 0.044560, 0.000000, 0.000000 
2710900473.933649, 0.966956, -0.064838, 0.000000, -0.000000 
2720905739.863086, 0.953999, -0.172518, 0.000000, -0.000000 
2730911005.792522, 0.929410, -0.277215, 0.000000, -0.000000 
2740916271.721959, 0.893978, -0.378046, -0.000000, -0.000000 
2750921537.651396, 0.848283, -0.474336, -0.000000, -0.000000 
2760926803.580832, 0.792675, -0.565396, -0.000000, 0.000000 
2770932069.510269, 0.727395, -0.650344, -0.000000, 0.000000 
2780937335.439705, 0.652776, -0.728042, -0.000000, 0.000000 
2790942601.369142, 0.569442, -0.797170, 0.000000, 0.000000 
2800947867.298578, 0.478424, -0.856415, 0.000000, 0.000000 
2810953133.228015, 0.381142, -0.904686, 0.000000, -0.000000 
2820958399.157452, 0.279266, -0.941294, 0.000000, -0.000000 
2830963665.086888, 0.174490, -0.966006, 0.000000, -0.000000 
2840968931.016325, 0.068337, -0.978969, -0.000000, -0.000000 
2850974196.945761, -0.037967, -0.980536, -0.000000, -0.000000 
2860979462.875197, -0.143476, -0.971060, -0.000000, 0.000000 
2870984728.804634, -0.247397, -0.950759, -0.000000, 0.000000 
2880989994.734071, -0.348904, -0.919678, 0.000000, 0.000000 
2890995260.663507, -0.446985, -0.877795, 0.000000, 0.000000 
2901000526.592944, -0.540384, -0.825192, 0.000000, 0.000000 
2911005792.522380, -0.627661, -0.762237, 0.000000, -0.000000 
2921011058.451817, -0.707365, -0.689687, 0.000000, -0.000000 
2931016324.381253, -0.778236, -0.608671, -0.000000, -0.000000 
2941021590.310690, -0.839353, -0.520566, -0.000000, -0.000000 
2951026856.240127, -0.890185, -0.426792, -0.000000, 0.000000 
2961032122.169563, -0.930517, -0.328645, -0.000000, 0.000000 
2971037388.099000, -0.960289, -0.227207, -0.000000, 0.000000 
2981042654.028436, -0.979434, -0.123367, 0.000000, 0.000000 
2991047919.957872, -0.987767, -0.017947, 0.000000, 0.000000 
3001053185.887309, -0.984990, 0.088140, 0.000000, -0.000000 
3011058451.816746, -0.970791, 0.193776, 0.000000, -0.000000 
3021063717.746182, -0.945005, 0.297609, 0.000000, -0.000000 
3031068983.675619, -0.907756, 0.398134, -0.000000, -0.000000 
3041074249.605055, -0.859529, 0.493845, -0.000000, -0.000000 
3051079515.534492, -0.801130, 0.583400, -0.000000, 0.000000 
3061084781.463928, -0.733570, 0.665730, -0.000000, 0.000000 
3071090047.393365, -0.657914, 0.740054, 0.000000, 0.000000 
3081095313.322802, -0.575155, 0.805815, 0.000000, 0.000000 
3091100579.252238, -0.486169, 0.862555, 0.000000, 0.000000 
3101105845.181675, -0.391744, 0.909803, 0.000000, -0.000000 
3111111111.111111, -0.292684, 0.947016, 0.000000, -0.000000 
3121116377.040547, -0.189915, 0.973600, -0.000000, -0.000000 
3131121642.969984, -0.084556, 0.988997, -0.000000, -0.000000 
3141126908.899421, 0.022080, 0.992800, -0.000000, -0.000000 
3151132174.828857, 0.128550, 0.984852, -0.000000, 0.000000 
3161137440.758294, 0.233395, 0.965285, -0.000000, 0.000000 
3171142706.687730, 0.335249, 0.934495, 0.000000, 0.000000 
3181147972.617167, 0.432915, 0.893069, 0.000000, 0.000000 
3191153238.546604, 0.525384, 0.841681, 0.000000, -0.000000 
3201158504.476040, 0.611799, 0.781015, 0.000000, -0.000000 
3211163770.405477, 0.691382, 0.711730, 0.000000, -0.000000 
3221169036.334913, 0.763369, 0.634469, -0.000000, -0.000000 
3231174302.264350, 0.826964, 0.549918, -0.000000, -0.000000 
3241179568.193786, 0.881351, 0.458873, -0.000000, 0.000000 
3251184834.123223, 0.925739, 0.362293, -0.000000, 0.000000 
3261190100.052660, 0.959438, 0.261319, -0.000000, 0.000000 
3271195365.982096, 0.981943, 0.157240, 0.000000, 0.000000 
3281200631.911532, 0.992978, 0.051428, 0.000000, 0.000000 
3291205897.840969, 0.992515, -0.054751, 0.000000, -0.000000 
3301211163.770406, 0.980733, -0.160011, 0.000000, -0.000000 
3311216429.699842, 0.957952, -0.263195, -0.000000, -0.000000 
3321221695.629279, 0.924561, -0.363272, -0.000000, -0.000000 
3331226961.558715, 0.880959, -0.459295, -0.000000, -0.000000 
3341232227.488152, 0.827544, -0.550338, -0.000000, 0.000000 
3351237493.417588, 0.764745, -0.635442, -0.000000, 0.000000 
3361242759.347025, 0.693088, -0.713590, 0.000000, 0.000000 
3371248025.276461, 0.613265, -0.783742, 0.000000, 0.000000 
3381253291.205898, 0.526181, -0.844903, 0.000000, 0.000000 
3391258557.135334, 0.432944, -0.896219, 0.000000, -0.000000 
3401263823.064771, 0.334809, -0.937051, 0.000000, -0.000000 
3411269088.994207, 0.233079, -0.967014, -0.000000, -0.000000 
3421274354.923644, 0.129015, -0.985945, -0.000000, -0.000000 
3431279620.853081, 0.023772, -0.993840, -0.000000, 0.000000 
3441284886.782517, -0.081607, -0.990757, -0.000000, 0.000000 
3451290152.711954, -0.186135, -0.976757, -0.000000, 0.000000 
3461295418.641390, -0.288811, -0.951890, 0.000000, 0.000000 
3471300684.570827, -0.388544, -0.916239, 0.000000, 0.000000 
3481305950.500263, -0.484141, -0.870005, 0.000000, -0.000000 
3491311216.429700, -0.574342, -0.813592, 0.000000, -0.000000 
3501316482.359137, -0.657914, -0.747653, 0.000000, -0.000000 
3511321748.288573, -0.733750, -0.673078, -0.000000, -0.000000 
3521327014.218009, -0.800958, -0.590920, -0.000000, -0.000000 
3531332280.147446, -0.858875, -0.502293, -0.000000, 0.000000 
3541337546.076883, -0.907036, -0.408283, -0.000000, 0.000000 
3551342812.006319, -0.945091, -0.309899, 0.000000, 0.000000 
3561348077.935756, -0.972729, -0.208094, 0.000000, 0.000000 
3571353343.865192, -0.989628, -0.103824, 0.000000, 0.000000 
3581358609.794629, -0.995470, 0.001879, 0.000000, -0.000000 
3591363875.724065, -0.989999, 0.107854, 0.000000, -0.000000 
3601369141.653502, -0.973111, 0.212812, -0.000000, -0.000000 
3611374407.582939, -0.944920, 0.315399, -0.000000, -0.000000 
3621379673.512375, -0.905788, 0.414276, -0.000000, -0.000000 
3631384939.441812, -0.856296, 0.508213, -0.000000, 0.000000 
3641390205.371248, -0.797175, 0.596144, -0.000000, 0.000000 
3651395471.300684, -0.729229, 0.677173, 0.000000, 0.000000 
3661400737.230121, -0.653268, 0.750537, 0.000000, 0.000000 
3671406003.159558, -0.570096, 0.815550, 0.000000, -0.000000 
3681411269.088995, -0.480526, 0.871552, 0.000000, -0.000000 
3691416535.018431, -0.385428, 0.917890, 0.000000, -0.000000 
3701421800.947867, -0.285778, 0.953944, -0.000000, -0.000000 
3711427066.877304, -0.182686, 0.979173, -0.000000, -0.000000 
3721432332.806740, -0.077379, 0.993176, -0.000000, 0.000000 
3731437598.736177, 0.028837, 0.995742, -0.000000, 0.000000 
3741442864.665614, 0.134641, 0.986863, -0.000000, 0.000000 
3751448130.595050, 0.238754, 0.966727, 0.000000, 0.000000 
3761453396.524487, 0.339981, 0.935675, 0.000000, 0.000000 
3771458662.453923, 0.437229, 0.894157, 0.000000, -0.000000 
3781463928.383360, 0.529493, 0.842693, 0.000000, -0.000000 
3791469194.312796, 0.615836, 0.781853, -0.000000, -0.000000 
3801474460.242233, 0.695357, 0.712254, -0.000000, -0.000000 
3811479726.171669, 0.767180, 0.634580, -0.000000, -0.000000 
3821484992.101106, 0.830452, 0.549616, -0.000000, 0.000000 
3831490258.030542, 0.884369, 0.458265, -0.000000, 0.000000 
3841495523.959979, 0.928216, 0.361567, 0.000000, 0.000000 
3851500789.889416, 0.961411, 0.260682, 0.000000, 0.000000 
3861506055.818852, 0.983549, 0.156855, 0.000000, 0.000000 
3871511321.748289, 0.994415, 0.051365, 0.000000, -0.000000 
3881516587.677725, 0.993979, -0.054529, 0.000000, -0.000000 
3891521853.607162, 0.982362, -0.159634, -0.000000, -0.000000 
3901527119.536598, 0.959787, -0.262834, -0.000000, -0.000000 
3911532385.466035, 0.926540, -0.363080, -0.000000, 0.000000 
3921537651.395472, 0.882950, -0.459353, -0.000000, 0.000000 
3931542917.324908, 0.829395, -0.550630, -0.000000, 0.000000 
3941548183.254344, 0.766349, -0.635861, 0.000000, 0.000000 
3951553449.183781, 0.694426, -0.713987, 0.000000, 0.000000 
3961558715.113217, 0.614416, -0.783983, 0.000000, -0.000000 
3971563981.042654, 0.527293, -0.844931, 0.000000, -0.000000 
3981569246.972091, 0.434174, -0.896082, 0.000000, -0.000000 
3991574512.901527, 0.336253, -0.936888, -0.000000, -0.000000 
4001579778.830964, 0.234729, -0.967003, -0.000000, -0.000000 
4011585044.760400, 0.130749, -0.986230, -0.000000, 0.000000 
4021590310.689837, 0.025398, -0.994464, -0.000000, 0.000000 
4031595576.619273, -0.080279, -0.991641, 0.000000, 0.000000 
4041600842.548710, -0.185219, -0.977723, 0.000000, 0.000000 
4051606108.478147, -0.288298, -0.952725, 0.000000, 0.000000 
4061611374.407583, -0.388312, -0.916776, 0.000000, -0.000000 
4071616640.337019, -0.484003, -0.870182, 0.000000, -0.000000 
4081621906.266456, -0.574128, -0.813465, -0.000000, -0.000000 
