# stacked metamaterial geometry 
# f [Hz], L [0.001 m]
# Unitcell size lx, ly, lz = 20, 20, 299.792 at center position x = 0 y = 0 z = 0
# Definition of material properties: 
#name = FR4,Epsilon = 4.4,tand = 0.02,f0 = 5000000000,type = const,
#name = copper,type = const,EpsilonPlasmaFrequency = 250000000000000,EpsilonRelaxTime = 1.6e-13,Kappa = 56000000,
#name = copperRings,EpsilonPlasmaFrequency = 250000000000000,EpsilonRelaxTime = 1.6e-13,Kappa = 56000000,type = const,
#name = air,type = const,Epsilon = 1,
## layer number 1:
# rect patch made of copper lx, ly, lz = 20, 20, 0.5 at center position x = 0 y = 0 z = -0.25
# layer number 2:
# rect patch made of FR4 lx, ly, lz = 20, 20, 2 at center position x = 0 y = 0 z = -1.5
# layer number 3:
# circular rings made of copperRings at center position x = 0 y = 0 z = -2.525
# radius R1, R2=9.8, 5.1 ringwidths w1, w2=2, 0.5, background material air
# Re/Im parts of the scattering parameters S11 (refl.) and S21 (transm.) as a function of frequency 
# first column is frequency, second column is S11
# Parameters of Metamaterial are: 
1000000000.000000, 0.409586, -0.911428, -0.000000, 0.000000 
1010005265.929437, 0.310984, -0.949599, 0.000000, 0.000000 
1020010531.858873, 0.208853, -0.977217, 0.000000, -0.000000 
1030015797.788310, 0.104274, -0.993875, 0.000000, -0.000000 
1040021063.717746, -0.001519, -0.999289, -0.000000, -0.000000 
1050026329.647183, -0.107227, -0.993416, -0.000000, 0.000000 
1060031595.576619, -0.211636, -0.976431, -0.000000, 0.000000 
1070036861.506056, -0.313667, -0.948594, 0.000000, 0.000000 
1080042127.435492, -0.412279, -0.910156, 0.000000, 0.000000 
1090047393.364929, -0.506355, -0.861425, 0.000000, -0.000000 
1100052659.294365, -0.594714, -0.802904, -0.000000, -0.000000 
1110057925.223802, -0.676273, -0.735344, -0.000000, -0.000000 
1120063191.153239, -0.750162, -0.659632, -0.000000, 0.000000 
1130068457.082675, -0.815696, -0.576629, 0.000000, 0.000000 
1140073723.012112, -0.872213, -0.487134, 0.000000, 0.000000 
1150078988.941548, -0.918987, -0.392021, 0.000000, -0.000000 
1160084254.870985, -0.955329, -0.292380, -0.000000, -0.000000 
1170089520.800421, -0.980772, -0.189490, -0.000000, -0.000000 
1180094786.729858, -0.995152, -0.084635, -0.000000, 0.000000 
1190100052.659294, -0.998478, 0.021060, -0.000000, 0.000000 
1200105318.588731, -0.990745, 0.126593, 0.000000, 0.000000 
1210110584.518167, -0.971883, 0.230895, 0.000000, -0.000000 
1220115850.447604, -0.941919, 0.332707, 0.000000, -0.000000 
1230121116.377041, -0.901180, 0.430678, -0.000000, -0.000000 
1240126382.306477, -0.850304, 0.523598, -0.000000, 0.000000 
1250131648.235914, -0.790043, 0.610534, -0.000000, 0.000000 
1260136914.165350, -0.721058, 0.690724, 0.000000, 0.000000 
1270142180.094787, -0.643920, 0.763353, 0.000000, -0.000000 
1280147446.024223, -0.559319, 0.827463, 0.000000, -0.000000 
1290152711.953660, -0.468246, 0.882102, -0.000000, -0.000000 
1300157977.883096, -0.371946, 0.926583, -0.000000, -0.000000 
1310163243.812533, -0.271670, 0.960562, -0.000000, 0.000000 
1320168509.741970, -0.168484, 0.983879, 0.000000, 0.000000 
1330173775.671406, -0.063323, 0.996317, 0.000000, 0.000000 
1340179041.600842, 0.042780, 0.997557, 0.000000, -0.000000 
1350184307.530279, 0.148545, 0.987364, -0.000000, -0.000000 
1360189573.459716, 0.252548, 0.965820, -0.000000, -0.000000 
1370194839.389152, 0.353479, 0.933353, -0.000000, 0.000000 
1380200105.318589, 0.450301, 0.890532, 0.000000, 0.000000 
1390205371.248025, 0.542143, 0.837844, 0.000000, 0.000000 
1400210637.177462, 0.628080, 0.775689, 0.000000, -0.000000 
1410215903.106898, 0.707022, 0.704580, -0.000000, -0.000000 
1420221169.036335, 0.777861, 0.625330, -0.000000, -0.000000 
1430226434.965771, 0.839706, 0.539025, -0.000000, 0.000000 
1440231700.895208, 0.891979, 0.446800, -0.000000, 0.000000 
1450236966.824645, 0.934280, 0.349664, 0.000000, 0.000000 
1460242232.754081, 0.966189, 0.248532, 0.000000, -0.000000 
1470247498.683518, 0.987213, 0.144413, 0.000000, -0.000000 
1480252764.612954, 0.996936, 0.038533, -0.000000, -0.000000 
1490258030.542391, 0.995208, -0.067742, -0.000000, 0.000000 
1500263296.471827, 0.982170, -0.173102, -0.000000, 0.000000 
1510268562.401264, 0.958110, -0.276414, 0.000000, 0.000000 
1520273828.330700, 0.923305, -0.376654, 0.000000, 0.000000 
1530279094.260137, 0.878023, -0.472755, 0.000000, -0.000000 
1540284360.189574, 0.822663, -0.563551, -0.000000, -0.000000 
1550289626.119010, 0.757862, -0.647886, -0.000000, -0.000000 
1560294892.048447, 0.684462, -0.724760, -0.000000, 0.000000 
1570300157.977883, 0.603367, -0.793373, 0.000000, 0.000000 
1580305423.907320, 0.515459, -0.853033, 0.000000, 0.000000 
1590310689.836756, 0.421640, -0.903060, 0.000000, -0.000000 
1600315955.766193, 0.322938, -0.942799, -0.000000, -0.000000 
1610321221.695629, 0.220530, -0.971730, -0.000000, -0.000000 
1620326487.625066, 0.115653, -0.989545, -0.000000, 0.000000 
1630331753.554502, 0.009503, -0.996109, -0.000000, 0.000000 
1640337019.483939, -0.096783, -0.991365, 0.000000, 0.000000 
1650342285.413375, -0.202038, -0.975300, 0.000000, -0.000000 
1660347551.342812, -0.305023, -0.948021, 0.000000, -0.000000 
1670352817.272249, -0.404473, -0.909840, -0.000000, -0.000000 
1680358083.201685, -0.499225, -0.861271, -0.000000, 0.000000 
1690363349.131122, -0.588264, -0.802922, -0.000000, 0.000000 
1700368615.060558, -0.670654, -0.735405, 0.000000, 0.000000 
1710373880.989995, -0.745440, -0.659379, 0.000000, -0.000000 
1720379146.919431, -0.811648, -0.575663, 0.000000, -0.000000 
1730384412.848868, -0.868415, -0.485293, -0.000000, -0.000000 
1740389678.778304, -0.915114, -0.389430, -0.000000, 0.000000 
1750394944.707741, -0.951334, -0.289201, -0.000000, 0.000000 
1760400210.637177, -0.976737, -0.185641, 0.000000, 0.000000 
1770405476.566614, -0.990957, -0.079800, 0.000000, 0.000000 
1780410742.496051, -0.993654, 0.027112, 0.000000, -0.000000 
1790416008.425487, -0.984697, 0.133717, -0.000000, -0.000000 
1800421274.354924, -0.964267, 0.238631, -0.000000, -0.000000 
1810426540.284360, -0.932764, 0.340647, -0.000000, 0.000000 
1820431806.213797, -0.890618, 0.438747, 0.000000, 0.000000 
1830437072.143233, -0.838187, 0.531937, 0.000000, 0.000000 
1840442338.072670, -0.775873, 0.619096, 0.000000, -0.000000 
1850447604.002106, -0.704322, 0.699011, -0.000000, -0.000000 
1860452869.931543, -0.624491, 0.770590, -0.000000, -0.000000 
1870458135.860980, -0.537499, 0.833033, -0.000000, 0.000000 
1880463401.790416, -0.444401, 0.885796, -0.000000, 0.000000 
1890468667.719852, -0.346123, 0.928386, 0.000000, 0.000000 
1900473933.649289, -0.243608, 0.960213, 0.000000, -0.000000 
1910479199.578726, -0.138020, 0.980672, 0.000000, -0.000000 
1920484465.508162, -0.030765, 0.989370, -0.000000, -0.000000 
1930489731.437599, 0.076701, 0.986265, -0.000000, 0.000000 
1940494997.367035, 0.183091, 0.971576, -0.000000, 0.000000 
1950500263.296472, 0.287318, 0.945561, 0.000000, 0.000000 
1960505529.225908, 0.388316, 0.908401, 0.000000, -0.000000 
1970510795.155345, 0.484872, 0.860306, 0.000000, -0.000000 
1980516061.084782, 0.575641, 0.801725, -0.000000, -0.000000 
1990521327.014218, 0.659356, 0.733440, -0.000000, -0.000000 
2000526592.943655, 0.735009, 0.656432, -0.000000, 0.000000 
2010531858.873091, 0.801833, 0.571668, 0.000000, 0.000000 
2020537124.802528, 0.859129, 0.480032, 0.000000, 0.000000 
2030542390.731964, 0.906126, 0.382436, 0.000000, -0.000000 
2040547656.661401, 0.942048, 0.280000, -0.000000, -0.000000 
2050552922.590837, 0.966294, 0.174076, -0.000000, -0.000000 
2060558188.520274, 0.978565, 0.066096, -0.000000, 0.000000 
2070563454.449710, 0.978796, -0.042593, 0.000000, 0.000000 
2080568720.379147, 0.967004, -0.150762, 0.000000, 0.000000 
2090573986.308583, 0.943205, -0.257177, 0.000000, -0.000000 
2100579252.238020, 0.907499, -0.360488, 0.000000, -0.000000 
2110584518.167457, 0.860210, -0.459259, -0.000000, -0.000000 
2120589784.096893, 0.801932, -0.552116, -0.000000, 0.000000 
2130595050.026330, 0.733430, -0.637852, -0.000000, 0.000000 
2140600315.955766, 0.655524, -0.715398, 0.000000, 0.000000 
2150605581.885203, 0.569071, -0.783723, 0.000000, -0.000000 
2160610847.814639, 0.475054, -0.841789, 0.000000, -0.000000 
2170616113.744076, 0.374665, -0.888639, -0.000000, -0.000000 
2180621379.673512, 0.269264, -0.923502, -0.000000, 0.000000 
2190626645.602949, 0.160270, -0.945827, -0.000000, 0.000000 
2200631911.532386, 0.049092, -0.955204, 0.000000, 0.000000 
2210637177.461822, -0.062818, -0.951293, 0.000000, 0.000000 
2220642443.391258, -0.173880, -0.933855, 0.000000, -0.000000 
2230647709.320695, -0.282384, -0.902871, -0.000000, -0.000000 
2240652975.250132, -0.386595, -0.858605, -0.000000, -0.000000 
2250658241.179568, -0.484863, -0.801552, -0.000000, 0.000000 
2260663507.109005, -0.575617, -0.732328, 0.000000, 0.000000 
2270668773.038442, -0.657269, -0.651651, 0.000000, 0.000000 
2280674038.967878, -0.728144, -0.560443, 0.000000, -0.000000 
2290679304.897314, -0.786556, -0.459965, -0.000000, -0.000000 
2300684570.826751, -0.830967, -0.351837, -0.000000, -0.000000 
2310689836.756187, -0.860085, -0.237927, -0.000000, 0.000000 
2320695102.685624, -0.872813, -0.120250, 0.000000, 0.000000 
2330700368.615061, -0.868142, -0.001013, 0.000000, 0.000000 
2340705634.544497, -0.845162, 0.117220, 0.000000, -0.000000 
2350710900.473934, -0.803244, 0.231383, -0.000000, -0.000000 
2360716166.403370, -0.742301, 0.337933, -0.000000, -0.000000 
2370721432.332807, -0.662971, 0.433000, -0.000000, 0.000000 
2380726698.262243, -0.566690, 0.512518, 0.000000, 0.000000 
2390731964.191680, -0.455800, 0.572263, 0.000000, 0.000000 
2400737230.121117, -0.333827, 0.607913, 0.000000, -0.000000 
2410742496.050553, -0.205913, 0.615340, 0.000000, -0.000000 
2420747761.979990, -0.079192, 0.591287, -0.000000, -0.000000 
2430753027.909426, 0.037146, 0.534402, -0.000000, 0.000000 
2440758293.838862, 0.132344, 0.446485, -0.000000, 0.000000 
2450763559.768299, 0.195326, 0.333673, 0.000000, 0.000000 
2460768825.697736, 0.216797, 0.207072, 0.000000, -0.000000 
2470774091.627172, 0.191926, 0.082155, 0.000000, -0.000000 
2480779357.556609, 0.122700, -0.023533, -0.000000, -0.000000 
2490784623.486045, 0.018752, -0.094038, -0.000000, 0.000000 
2500789889.415482, -0.104119, -0.118767, -0.000000, 0.000000 
2510795155.344918, -0.227327, -0.094843, 0.000000, 0.000000 
2520800421.274355, -0.333543, -0.027227, 0.000000, 0.000000 
2530805687.203792, -0.409959, 0.073248, 0.000000, -0.000000 
2540810953.133228, -0.449884, 0.193002, -0.000000, -0.000000 
2550816219.062665, -0.452435, 0.318832, -0.000000, -0.000000 
2560821484.992101, -0.420838, 0.440003, -0.000000, 0.000000 
2570826750.921537, -0.360382, 0.548874, 0.000000, 0.000000 
2580832016.850974, -0.276915, 0.640426, 0.000000, 0.000000 
2590837282.780411, -0.176226, 0.711513, 0.000000, -0.000000 
2600842548.709847, -0.063942, 0.760419, 0.000000, -0.000000 
2610847814.639284, 0.054602, 0.786761, -0.000000, -0.000000 
2620853080.568720, 0.174706, 0.791353, -0.000000, 0.000000 
2630858346.498157, 0.292626, 0.775804, -0.000000, 0.000000 
2640863612.427593, 0.405563, 0.741956, 0.000000, 0.000000 
2650868878.357030, 0.511313, 0.691545, 0.000000, -0.000000 
2660874144.286467, 0.607893, 0.626248, 0.000000, -0.000000 
2670879410.215903, 0.693463, 0.547934, -0.000000, -0.000000 
2680884676.145340, 0.766524, 0.458782, -0.000000, 0.000000 
2690889942.074776, 0.826133, 0.361120, -0.000000, 0.000000 
2700895208.004213, 0.871866, 0.257121, 0.000000, 0.000000 
2710900473.933649, 0.903569, 0.148664, 0.000000, 0.000000 
2720905739.863086, 0.921121, 0.037438, 0.000000, -0.000000 
2730911005.792522, 0.924419, -0.074837, -0.000000, -0.000000 
2740916271.721959, 0.913546, -0.186318, -0.000000, -0.000000 
2750921537.651396, 0.888925, -0.295154, -0.000000, 0.000000 
2760926803.580832, 0.851303, -0.399681, 0.000000, 0.000000 
2770932069.510269, 0.801584, -0.498511, 0.000000, 0.000000 
2780937335.439705, 0.740685, -0.590463, 0.000000, -0.000000 
2790942601.369142, 0.669519, -0.674437, 0.000000, -0.000000 
2800947867.298578, 0.589078, -0.749350, -0.000000, -0.000000 
2810953133.228015, 0.500525, -0.814190, -0.000000, 0.000000 
2820958399.157452, 0.405187, -0.868113, -0.000000, 0.000000 
2830963665.086888, 0.304478, -0.910505, 0.000000, 0.000000 
2840968931.016325, 0.199821, -0.940969, 0.000000, -0.000000 
2850974196.945761, 0.092601, -0.959277, 0.000000, -0.000000 
2860979462.875197, -0.015835, -0.965321, -0.000000, -0.000000 
2870984728.804634, -0.124157, -0.959093, -0.000000, 0.000000 
2880989994.734071, -0.231019, -0.940685, -0.000000, 0.000000 
2890995260.663507, -0.335047, -0.910331, 0.000000, 0.000000 
2901000526.592944, -0.434864, -0.868462, 0.000000, -0.000000 
2911005792.522380, -0.529174, -0.815723, 0.000000, -0.000000 
2921011058.451817, -0.616846, -0.752929, -0.000000, -0.000000 
2931016324.381253, -0.696929, -0.680952, -0.000000, 0.000000 
2941021590.310690, -0.768578, -0.600652, -0.000000, 0.000000 
2951026856.240127, -0.830952, -0.512912, 0.000000, 0.000000 
2961032122.169563, -0.883203, -0.418749, 0.000000, 0.000000 
2971037388.099000, -0.924589, -0.319397, 0.000000, -0.000000 
2981042654.028436, -0.954625, -0.216240, -0.000000, -0.000000 
2991047919.957872, -0.973123, -0.110645, -0.000000, -0.000000 
3001053185.887309, -0.980065, -0.003821, -0.000000, 0.000000 
3011058451.816746, -0.975429, 0.103136, 0.000000, 0.000000 
3021063717.746182, -0.959146, 0.209071, 0.000000, 0.000000 
3031068983.675619, -0.931245, 0.312650, 0.000000, -0.000000 
3041074249.605055, -0.892047, 0.412433, -0.000000, -0.000000 
3051079515.534492, -0.842211, 0.507099, -0.000000, -0.000000 
3061084781.463928, -0.782565, 0.595611, -0.000000, 0.000000 
3071090047.393365, -0.713878, 0.677161, -0.000000, 0.000000 
3081095313.322802, -0.636802, 0.750953, 0.000000, 0.000000 
3091100579.252238, -0.552033, 0.816054, 0.000000, -0.000000 
3101105845.181675, -0.460537, 0.871477, 0.000000, -0.000000 
3111111111.111111, -0.363583, 0.916424, -0.000000, -0.000000 
3121116377.040547, -0.262551, 0.950464, -0.000000, 0.000000 
3131121642.969984, -0.158679, 0.973458, -0.000000, 0.000000 
3141126908.899421, -0.052999, 0.985317, 0.000000, 0.000000 
3151132174.828857, 0.053485, 0.985840, 0.000000, -0.000000 
3161137440.758294, 0.159583, 0.974795, 0.000000, -0.000000 
3171142706.687730, 0.263875, 0.952162, -0.000000, -0.000000 
3181147972.617167, 0.364921, 0.918295, -0.000000, -0.000000 
3191153238.546604, 0.461502, 0.873837, -0.000000, 0.000000 
3201158504.476040, 0.552678, 0.819471, 0.000000, 0.000000 
3211163770.405477, 0.637621, 0.755768, 0.000000, 0.000000 
3221169036.334913, 0.715402, 0.683252, 0.000000, -0.000000 
3231174302.264350, 0.784964, 0.602619, -0.000000, -0.000000 
3241179568.193786, 0.845305, 0.514874, -0.000000, -0.000000 
3251184834.123223, 0.895689, 0.421240, -0.000000, 0.000000 
3261190100.052660, 0.935693, 0.322942, 0.000000, 0.000000 
3271195365.982096, 0.965052, 0.221060, 0.000000, 0.000000 
3281200631.911532, 0.983484, 0.116588, 0.000000, -0.000000 
3291205897.840969, 0.990655, 0.010600, 0.000000, -0.000000 
3301211163.770406, 0.986324, -0.095640, -0.000000, -0.000000 
3311216429.699842, 0.970503, -0.200756, -0.000000, 0.000000 
3321221695.629279, 0.943485, -0.303428, -0.000000, 0.000000 
3331226961.558715, 0.905727, -0.402508, 0.000000, 0.000000 
3341232227.488152, 0.857715, -0.496990, 0.000000, -0.000000 
3351237493.417588, 0.799927, -0.585893, 0.000000, -0.000000 
3361242759.347025, 0.732913, -0.668189, -0.000000, -0.000000 
3371248025.276461, 0.657397, -0.742843, -0.000000, 0.000000 
3381253291.205898, 0.574294, -0.808920, -0.000000, 0.000000 
3391258557.135334, 0.484646, -0.865663, 0.000000, 0.000000 
3401263823.064771, 0.389529, -0.912487, 0.000000, 0.000000 
3411269088.994207, 0.290014, -0.948928, 0.000000, -0.000000 
3421274354.923644, 0.187182, -0.974598, -0.000000, -0.000000 
3431279620.853081, 0.082154, -0.989183, -0.000000, -0.000000 
3441284886.782517, -0.023883, -0.992463, -0.000000, 0.000000 
3451290152.711954, -0.129691, -0.984357, 0.000000, 0.000000 
3461295418.641390, -0.234003, -0.964952, 0.000000, 0.000000 
3471300684.570827, -0.335584, -0.934512, 0.000000, -0.000000 
3481305950.500263, -0.433277, -0.893453, -0.000000, -0.000000 
3491311216.429700, -0.526031, -0.842289, -0.000000, -0.000000 
3501316482.359137, -0.612868, -0.781577, -0.000000, 0.000000 
3511321748.288573, -0.692822, -0.711922, 0.000000, 0.000000 
3521327014.218009, -0.764916, -0.634044, 0.000000, 0.000000 
3531332280.147446, -0.828221, -0.548848, 0.000000, -0.000000 
3541337546.076883, -0.881969, -0.457415, 0.000000, -0.000000 
3551342812.006319, -0.925623, -0.360893, -0.000000, -0.000000 
3561348077.935756, -0.958822, -0.260375, -0.000000, 0.000000 
3571353343.865192, -0.981259, -0.156878, -0.000000, 0.000000 
3581358609.794629, -0.992602, -0.051450, 0.000000, 0.000000 
3591363875.724065, -0.992564, 0.054710, 0.000000, -0.000000 
3601369141.653502, -0.981057, 0.160249, 0.000000, -0.000000 
3611374407.582939, -0.958300, 0.263812, -0.000000, -0.000000 
3621379673.512375, -0.924733, 0.364214, -0.000000, 0.000000 
3631384939.441812, -0.880844, 0.460470, -0.000000, 0.000000 
3641390205.371248, -0.827045, 0.551659, 0.000000, 0.000000 
3651395471.300684, -0.763753, 0.636759, 0.000000, 0.000000 
3661400737.230121, -0.691574, 0.714636, 0.000000, -0.000000 
3671406003.159558, -0.611420, 0.784217, -0.000000, -0.000000 
3681411269.088995, -0.524413, 0.844696, -0.000000, -0.000000 
3691416535.018431, -0.431667, 0.895564, -0.000000, 0.000000 
3701421800.947867, -0.334145, 0.936441, 0.000000, 0.000000 
3711427066.877304, -0.232738, 0.966885, 0.000000, 0.000000 
3721432332.806740, -0.128470, 0.986375, 0.000000, -0.000000 
3731437598.736177, -0.022615, 0.994490, -0.000000, -0.000000 
3741442864.665614, 0.083405, 0.991116, -0.000000, -0.000000 
3751448130.595050, 0.188259, 0.976472, -0.000000, 0.000000 
3761453396.524487, 0.290842, 0.950926, -0.000000, 0.000000 
3771458662.453923, 0.390209, 0.914796, 0.000000, 0.000000 
3781463928.383360, 0.485362, 0.868321, 0.000000, -0.000000 
3791469194.312796, 0.575143, 0.811834, 0.000000, -0.000000 
3801474460.242233, 0.658326, 0.745949, -0.000000, -0.000000 
3811479726.171669, 0.733842, 0.671574, -0.000000, 0.000000 
3821484992.101106, 0.800910, 0.589741, -0.000000, 0.000000 
3831490258.030542, 0.858966, 0.501409, 0.000000, 0.000000 
3841495523.959979, 0.907475, 0.407431, 0.000000, -0.000000 
3851500789.889416, 0.945823, 0.308697, 0.000000, -0.000000 
3861506055.818852, 0.973400, 0.206292, -0.000000, -0.000000 
3871511321.748289, 0.989778, 0.101507, -0.000000, 0.000000 
3881516587.677725, 0.994823, -0.004312, -0.000000, 0.000000 
3891521853.607162, 0.988634, -0.109931, 0.000000, 0.000000 
3901527119.536598, 0.971386, -0.214261, 0.000000, 0.000000 
3911532385.466035, 0.943238, -0.316263, 0.000000, -0.000000 
3921537651.395472, 0.904376, -0.414821, -0.000000, -0.000000 
3931542917.324908, 0.855141, -0.508731, -0.000000, -0.000000 
3941548183.254344, 0.796111, -0.596809, -0.000000, 0.000000 
3951553449.183781, 0.728057, -0.678013, 0.000000, 0.000000 
3961558715.113217, 0.651834, -0.751479, 0.000000, 0.000000 
3971563981.042654, 0.568305, -0.816471, 0.000000, -0.000000 
3981569246.972091, 0.478339, -0.872299, 0.000000, -0.000000 
3991574512.901527, 0.382879, -0.918296, -0.000000, -0.000000 
4001579778.830964, 0.282988, -0.953865, -0.000000, 0.000000 
4011585044.760400, 0.179842, -0.978546, -0.000000, 0.000000 
4021590310.689837, 0.074676, -0.992055, 0.000000, 0.000000 
4031595576.619273, -0.031277, -0.994286, 0.000000, -0.000000 
4041600842.548710, -0.136828, -0.985270, 0.000000, -0.000000 
4051606108.478147, -0.240833, -0.965136, -0.000000, -0.000000 
4061611374.407583, -0.342171, -0.934082, -0.000000, 0.000000 
4071616640.337019, -0.439707, -0.892390, -0.000000, 0.000000 
4081621906.266456, -0.532284, -0.840471, 0.000000, 0.000000 
