# stacked metamaterial geometry 
# f [Hz], L [0.001 m]
# Unitcell size lx, ly, lz = 20, 20, 149.896 at center position x = 0 y = 0 z = 0
# Definition of material properties: 
#name = FR4,type = const,Epsilon = 4.6,tand = 0.015,f0 = 10000000000,
#name = copper,type = const,Kappa = 56000000,
#name = copperRings,EpsilonPlasmaFrequency = 250000000000000,EpsilonRelaxTime = 1.6e-13,Kappa = 56000000,type = const,
#name = air,type = const,Epsilon = 1,
## layer number 1:
# rect patch made of copper lx, ly, lz = 20, 20, 0.5 at center position x = 0 y = 0 z = -0.25
# layer number 2:
# rect patch made of FR4 lx, ly, lz = 20, 20, 2 at center position x = 0 y = 0 z = -1.5
# layer number 3:
# circular rings made of copperRings at center position x = 0 y = 0 z = -2.525
# radius R1, R2=9.8, 5.1 ringwidths w1, w2=1.5, 0.5, background material air
# Re/Im parts of the scattering parameters S11 (refl.) and S21 (transm.) as a function of frequency 
# first column is frequency, second and third columns are Re/Im of S11 and S21, respectively.
# Parameters of Metamaterial are: 
1000000000.000000, -0.354220, -0.935329, -0.000000, -0.000000 
1010005265.929437, -0.401901, -0.916186, -0.000000, -0.000000 
1020010531.858873, -0.448541, -0.894483, -0.000000, -0.000000 
1030015797.788310, -0.493978, -0.870294, -0.000000, -0.000000 
1040021063.717746, -0.538065, -0.843698, -0.000000, 0.000000 
1050026329.647183, -0.580657, -0.814780, -0.000000, 0.000000 
1060031595.576619, -0.621608, -0.783633, -0.000000, 0.000000 
1070036861.506056, -0.660776, -0.750369, -0.000000, 0.000000 
1080042127.435492, -0.698021, -0.715122, 0.000000, 0.000000 
1090047393.364929, -0.733225, -0.678055, 0.000000, 0.000000 
1100052659.294365, -0.766301, -0.639350, 0.000000, 0.000000 
1110057925.223802, -0.797206, -0.599196, 0.000000, 0.000000 
1120063191.153239, -0.825943, -0.557773, 0.000000, -0.000000 
1130068457.082675, -0.852555, -0.515230, 0.000000, -0.000000 
1140073723.012112, -0.877110, -0.471665, 0.000000, -0.000000 
1150078988.941548, -0.899674, -0.427119, 0.000000, -0.000000 
1160084254.870985, -0.920286, -0.381584, -0.000000, -0.000000 
1170089520.800421, -0.938936, -0.335010, -0.000000, -0.000000 
1180094786.729858, -0.955545, -0.287338, -0.000000, -0.000000 
1190100052.659294, -0.969963, -0.238531, -0.000000, -0.000000 
1200105318.588731, -0.981983, -0.188603, -0.000000, 0.000000 
1210110584.518167, -0.991360, -0.137647, -0.000000, 0.000000 
1220115850.447604, -0.997848, -0.085851, -0.000000, 0.000000 
1230121116.377041, -1.001244, -0.033497, 0.000000, 0.000000 
1240126382.306477, -1.001419, 0.019059, 0.000000, 0.000000 
1250131648.235914, -0.998357, 0.071419, 0.000000, 0.000000 
1260136914.165350, -0.992161, 0.123193, 0.000000, 0.000000 
1270142180.094787, -0.983049, 0.174046, 0.000000, -0.000000 
1280147446.024223, -0.971316, 0.223749, 0.000000, -0.000000 
1290152711.953660, -0.957291, 0.272196, 0.000000, -0.000000 
1300157977.883096, -0.941276, 0.319412, 0.000000, -0.000000 
1310163243.812533, -0.923496, 0.365527, -0.000000, -0.000000 
1320168509.741970, -0.904061, 0.410735, -0.000000, -0.000000 
1330173775.671406, -0.882946, 0.455233, -0.000000, -0.000000 
1340179041.600842, -0.860006, 0.499170, -0.000000, -0.000000 
1350184307.530279, -0.835003, 0.542593, -0.000000, 0.000000 
1360189573.459716, -0.807657, 0.585415, -0.000000, 0.000000 
1370194839.389152, -0.777706, 0.627407, -0.000000, 0.000000 
1380200105.318589, -0.744967, 0.668209, -0.000000, 0.000000 
1390205371.248025, -0.709387, 0.707374, 0.000000, 0.000000 
1400210637.177462, -0.671070, 0.744421, 0.000000, 0.000000 
1410215903.106898, -0.630288, 0.778912, 0.000000, 0.000000 
1420221169.036335, -0.587449, 0.810511, 0.000000, 0.000000 
1430226434.965771, -0.543048, 0.839036, 0.000000, -0.000000 
1440231700.895208, -0.497590, 0.864483, 0.000000, -0.000000 
1450236966.824645, -0.451523, 0.887015, 0.000000, -0.000000 
1460242232.754081, -0.405170, 0.906919, -0.000000, -0.000000 
1470247498.683518, -0.358695, 0.924544, -0.000000, -0.000000 
1480252764.612954, -0.312088, 0.940226, -0.000000, -0.000000 
1490258030.542391, -0.265196, 0.954220, -0.000000, -0.000000 
1500263296.471827, -0.217765, 0.966649, -0.000000, 0.000000 
1510268562.401264, -0.169507, 0.977468, -0.000000, 0.000000 
1520273828.330700, -0.120175, 0.986469, -0.000000, 0.000000 
1530279094.260137, -0.069627, 0.993311, -0.000000, 0.000000 
1540284360.189574, -0.017876, 0.997569, 0.000000, 0.000000 
1550289626.119010, 0.034885, 0.998807, 0.000000, 0.000000 
1560294892.048447, 0.088289, 0.996655, 0.000000, 0.000000 
1570300157.977883, 0.141836, 0.990878, 0.000000, 0.000000 
1580305423.907320, 0.194956, 0.981417, 0.000000, -0.000000 
1590310689.836756, 0.247088, 0.968407, 0.000000, -0.000000 
1600315955.766193, 0.297761, 0.952156, 0.000000, -0.000000 
1610321221.695629, 0.346647, 0.933091, 0.000000, -0.000000 
1620326487.625066, 0.393603, 0.911690, -0.000000, -0.000000 
1630331753.554502, 0.438665, 0.888399, -0.000000, -0.000000 
1640337019.483939, 0.482020, 0.863570, -0.000000, -0.000000 
1650342285.413375, 0.523948, 0.837406, -0.000000, -0.000000 
1660347551.342812, 0.564754, 0.809937, -0.000000, 0.000000 
1670352817.272249, 0.604694, 0.781035, -0.000000, 0.000000 
1680358083.201685, 0.643914, 0.750440, -0.000000, 0.000000 
1690363349.131122, 0.682404, 0.717824, 0.000000, 0.000000 
1700368615.060558, 0.719983, 0.682858, 0.000000, 0.000000 
1710373880.989995, 0.756308, 0.645284, 0.000000, 0.000000 
1720379146.919431, 0.790919, 0.604979, 0.000000, 0.000000 
1730384412.848868, 0.823301, 0.561993, 0.000000, -0.000000 
1740389678.778304, 0.852962, 0.516556, 0.000000, -0.000000 
1750394944.707741, 0.879496, 0.469058, 0.000000, -0.000000 
1760400210.637177, 0.902649, 0.419997, 0.000000, -0.000000 
1770405476.566614, 0.922336, 0.369911, -0.000000, -0.000000 
1780410742.496051, 0.938649, 0.319309, -0.000000, -0.000000 
1790416008.425487, 0.951822, 0.268606, -0.000000, -0.000000 
1800421274.354924, 0.962180, 0.218077, -0.000000, -0.000000 
1810426540.284360, 0.970076, 0.167841, -0.000000, 0.000000 
1820431806.213797, 0.975827, 0.117862, -0.000000, 0.000000 
1830437072.143233, 0.979655, 0.067982, -0.000000, 0.000000 
1840442338.072670, 0.981651, 0.017971, -0.000000, 0.000000 
1850447604.002106, 0.981753, -0.032411, 0.000000, 0.000000 
1860452869.931543, 0.979758, -0.083356, 0.000000, 0.000000 
1870458135.860980, 0.975350, -0.134947, 0.000000, 0.000000 
1880463401.790416, 0.968156, -0.187122, 0.000000, 0.000000 
1890468667.719852, 0.957809, -0.239662, 0.000000, -0.000000 
1900473933.649289, 0.944007, -0.292204, 0.000000, -0.000000 
1910479199.578726, 0.926567, -0.344278, 0.000000, -0.000000 
1920484465.508162, 0.905460, -0.395358, -0.000000, -0.000000 
1930489731.437599, 0.880813, -0.444927, -0.000000, -0.000000 
1940494997.367035, 0.852897, -0.492532, -0.000000, -0.000000 
1950500263.296472, 0.822090, -0.537835, -0.000000, -0.000000 
1960505529.225908, 0.788824, -0.580637, -0.000000, 0.000000 
1970510795.155345, 0.753534, -0.620886, -0.000000, 0.000000 
1980516061.084782, 0.716593, -0.658665, -0.000000, 0.000000 
1990521327.014218, 0.678280, -0.694158, -0.000000, 0.000000 
2000526592.943655, 0.638736, -0.727602, 0.000000, 0.000000 
2010531858.873091, 0.597966, -0.759227, 0.000000, 0.000000 
2020537124.802528, 0.555842, -0.789208, 0.000000, 0.000000 
2030542390.731964, 0.512141, -0.817606, 0.000000, 0.000000 
2040547656.661401, 0.466593, -0.844340, 0.000000, -0.000000 
2050552922.590837, 0.418945, -0.869173, 0.000000, -0.000000 
2060558188.520274, 0.369018, -0.891730, 0.000000, -0.000000 
2070563454.449710, 0.316766, -0.911527, 0.000000, -0.000000 
2080568720.379147, 0.262302, -0.928029, -0.000000, -0.000000 
2090573986.308583, 0.205919, -0.940713, -0.000000, -0.000000 
2100579252.238020, 0.148070, -0.949132, -0.000000, -0.000000 
2110584518.167457, 0.089339, -0.952970, -0.000000, -0.000000 
2120589784.096893, 0.030383, -0.952079, -0.000000, 0.000000 
2130595050.026330, -0.028135, -0.946501, -0.000000, 0.000000 
2140600315.955766, -0.085614, -0.936452, -0.000000, 0.000000 
2150605581.885203, -0.141579, -0.922291, -0.000000, 0.000000 
2160610847.814639, -0.195731, -0.904452, 0.000000, 0.000000 
2170616113.744076, -0.247963, -0.883369, 0.000000, 0.000000 
2180621379.673512, -0.298349, -0.859388, 0.000000, 0.000000 
2190626645.602949, -0.347092, -0.832687, 0.000000, -0.000000 
2200631911.532386, -0.394440, -0.803219, 0.000000, -0.000000 
2210637177.461822, -0.440579, -0.770690, 0.000000, -0.000000 
2220642443.391258, -0.485514, -0.734589, 0.000000, -0.000000 
2230647709.320695, -0.528964, -0.694256, -0.000000, -0.000000 
2240652975.250132, -0.570287, -0.649002, -0.000000, -0.000000 
2250658241.179568, -0.608444, -0.598254, -0.000000, -0.000000 
2260663507.109005, -0.642027, -0.541718, -0.000000, -0.000000 
2270668773.038442, -0.669338, -0.479534, -0.000000, 0.000000 
2280674038.967878, -0.688538, -0.412405, -0.000000, 0.000000 
2290679304.897314, -0.697832, -0.341674, -0.000000, 0.000000 
2300684570.826751, -0.695702, -0.269341, -0.000000, 0.000000 
2310689836.756187, -0.681137, -0.197985, 0.000000, 0.000000 
2320695102.685624, -0.653843, -0.130615, 0.000000, 0.000000 
2330700368.615061, -0.614406, -0.070436, 0.000000, 0.000000 
2340705634.544497, -0.564358, -0.020564, 0.000000, 0.000000 
2350710900.473934, -0.506150, 0.016287, 0.000000, -0.000000 
2360716166.403370, -0.443016, 0.038088, 0.000000, -0.000000 
2370721432.332807, -0.378739, 0.043731, 0.000000, -0.000000 
2380726698.262243, -0.317356, 0.033167, 0.000000, -0.000000 
2390731964.191680, -0.262832, 0.007446, -0.000000, -0.000000 
2400737230.121117, -0.218744, -0.031348, -0.000000, -0.000000 
2410742496.050553, -0.188000, -0.080253, -0.000000, -0.000000 
2420747761.979990, -0.172631, -0.135659, -0.000000, 0.000000 
2430753027.909426, -0.173649, -0.193580, -0.000000, 0.000000 
2440758293.838862, -0.190999, -0.249950, -0.000000, 0.000000 
2450763559.768299, -0.223590, -0.300918, -0.000000, 0.000000 
2460768825.697736, -0.269410, -0.343120, 0.000000, 0.000000 
2470774091.627172, -0.325709, -0.373906, 0.000000, 0.000000 
2480779357.556609, -0.389245, -0.391499, 0.000000, 0.000000 
2490784623.486045, -0.456565, -0.395079, 0.000000, 0.000000 
2500789889.415482, -0.524288, -0.384765, 0.000000, -0.000000 
2510795155.344918, -0.589375, -0.361519, 0.000000, -0.000000 
2520800421.274355, -0.649332, -0.326963, 0.000000, -0.000000 
2530805687.203792, -0.702346, -0.283153, 0.000000, -0.000000 
2540810953.133228, -0.747326, -0.232334, -0.000000, -0.000000 
2550816219.062665, -0.783870, -0.176707, -0.000000, -0.000000 
2560821484.992101, -0.812151, -0.118240, -0.000000, -0.000000 
2570826750.921537, -0.832768, -0.058537, -0.000000, -0.000000 
2580832016.850974, -0.846573, 0.001225, -0.000000, 0.000000 
2590837282.780411, -0.854504, 0.060296, -0.000000, 0.000000 
2600842548.709847, -0.857444, 0.118302, -0.000000, 0.000000 
2610847814.639284, -0.856120, 0.175155, -0.000000, 0.000000 
2620853080.568720, -0.851042, 0.230944, 0.000000, 0.000000 
2630858346.498157, -0.842492, 0.285829, 0.000000, 0.000000 
2640863612.427593, -0.830554, 0.339942, 0.000000, 0.000000 
2650868878.357030, -0.815167, 0.393315, 0.000000, -0.000000 
2660874144.286467, -0.796196, 0.445849, 0.000000, -0.000000 
2670879410.215903, -0.773511, 0.497303, 0.000000, -0.000000 
2680884676.145340, -0.747043, 0.547323, 0.000000, -0.000000 
2690889942.074776, -0.716833, 0.595486, -0.000000, -0.000000 
2700895208.004213, -0.683044, 0.641350, -0.000000, -0.000000 
2710900473.933649, -0.645960, 0.684513, -0.000000, -0.000000 
2720905739.863086, -0.605958, 0.724649, -0.000000, -0.000000 
2730911005.792522, -0.563473, 0.761542, -0.000000, 0.000000 
2740916271.721959, -0.518952, 0.795086, -0.000000, 0.000000 
2750921537.651396, -0.472814, 0.825283, -0.000000, 0.000000 
2760926803.580832, -0.425424, 0.852221, -0.000000, 0.000000 
2770932069.510269, -0.377064, 0.876040, 0.000000, 0.000000 
2780937335.439705, -0.327933, 0.896901, 0.000000, 0.000000 
2790942601.369142, -0.278153, 0.914952, 0.000000, 0.000000 
2800947867.298578, -0.227783, 0.930306, 0.000000, 0.000000 
2810953133.228015, -0.176846, 0.943022, 0.000000, -0.000000 
2820958399.157452, -0.125356, 0.953099, 0.000000, -0.000000 
2830963665.086888, -0.073339, 0.960488, 0.000000, -0.000000 
2840968931.016325, -0.020859, 0.965096, 0.000000, -0.000000 
2850974196.945761, 0.031976, 0.966816, -0.000000, -0.000000 
2860979462.875197, 0.085006, 0.965539, -0.000000, -0.000000 
2870984728.804634, 0.138027, 0.961178, -0.000000, -0.000000 
2880989994.734071, 0.190800, 0.953684, -0.000000, -0.000000 
2890995260.663507, 0.243066, 0.943054, -0.000000, 0.000000 
2901000526.592944, 0.294566, 0.929333, -0.000000, 0.000000 
2911005792.522380, 0.345052, 0.912618, -0.000000, 0.000000 
2921011058.451817, 0.394304, 0.893041, 0.000000, 0.000000 
2931016324.381253, 0.442139, 0.870766, 0.000000, 0.000000 
2941021590.310690, 0.488418, 0.845968, 0.000000, 0.000000 
2951026856.240127, 0.533043, 0.818823, 0.000000, 0.000000 
2961032122.169563, 0.575949, 0.789492, 0.000000, -0.000000 
2971037388.099000, 0.617104, 0.758115, 0.000000, -0.000000 
2981042654.028436, 0.656484, 0.724799, 0.000000, -0.000000 
2991047919.957872, 0.694070, 0.689625, 0.000000, -0.000000 
3001053185.887309, 0.729830, 0.652645, -0.000000, -0.000000 
3011058451.816746, 0.763711, 0.613898, -0.000000, -0.000000 
3021063717.746182, 0.795635, 0.573415, -0.000000, -0.000000 
3031068983.675619, 0.825497, 0.531237, -0.000000, -0.000000 
3041074249.605055, 0.853168, 0.487424, -0.000000, 0.000000 
3051079515.534492, 0.878507, 0.442063, -0.000000, 0.000000 
3061084781.463928, 0.901371, 0.395276, -0.000000, 0.000000 
3071090047.393365, 0.921625, 0.347222, -0.000000, 0.000000 
3081095313.322802, 0.939161, 0.298087, 0.000000, 0.000000 
3091100579.252238, 0.953899, 0.248082, 0.000000, 0.000000 
3101105845.181675, 0.965803, 0.197427, 0.000000, 0.000000 
3111111111.111111, 0.974872, 0.146335, 0.000000, 0.000000 
3121116377.040547, 0.981143, 0.095006, 0.000000, -0.000000 
3131121642.969984, 0.984677, 0.043611, 0.000000, -0.000000 
3141126908.899421, 0.985548, -0.007711, 0.000000, -0.000000 
3151132174.828857, 0.983828, -0.058853, -0.000000, -0.000000 
3161137440.758294, 0.979577, -0.109732, -0.000000, -0.000000 
3171142706.687730, 0.972835, -0.160285, -0.000000, -0.000000 
3181147972.617167, 0.963615, -0.210450, -0.000000, -0.000000 
3191153238.546604, 0.951907, -0.260154, -0.000000, 0.000000 
3201158504.476040, 0.937686, -0.309308, -0.000000, 0.000000 
3211163770.405477, 0.920922, -0.357793, -0.000000, 0.000000 
3221169036.334913, 0.901592, -0.405461, -0.000000, 0.000000 
3231174302.264350, 0.879693, -0.452141, 0.000000, 0.000000 
3241179568.193786, 0.855256, -0.497643, 0.000000, 0.000000 
3251184834.123223, 0.828343, -0.541776, 0.000000, 0.000000 
3261190100.052660, 0.799058, -0.584355, 0.000000, 0.000000 
3271195365.982096, 0.767531, -0.625219, 0.000000, -0.000000 
3281200631.911532, 0.733915, -0.664237, 0.000000, -0.000000 
3291205897.840969, 0.698372, -0.701313, 0.000000, -0.000000 
3301211163.770406, 0.661058, -0.736384, 0.000000, -0.000000 
3311216429.699842, 0.622111, -0.769413, -0.000000, -0.000000 
3321221695.629279, 0.581649, -0.800378, -0.000000, -0.000000 
3331226961.558715, 0.539764, -0.829261, -0.000000, -0.000000 
3341232227.488152, 0.496528, -0.856035, -0.000000, -0.000000 
3351237493.417588, 0.451998, -0.880657, -0.000000, 0.000000 
3361242759.347025, 0.406235, -0.903061, -0.000000, 0.000000 
3371248025.276461, 0.359304, -0.923162, -0.000000, 0.000000 
3381253291.205898, 0.311294, -0.940861, 0.000000, 0.000000 
3391258557.135334, 0.262322, -0.956055, 0.000000, 0.000000 
3401263823.064771, 0.212529, -0.968646, 0.000000, 0.000000 
3411269088.994207, 0.162086, -0.978558, 0.000000, 0.000000 
3421274354.923644, 0.111177, -0.985740, 0.000000, -0.000000 
3431279620.853081, 0.059995, -0.990175, 0.000000, -0.000000 
3441284886.782517, 0.008725, -0.991875, 0.000000, -0.000000 
3451290152.711954, -0.042463, -0.990880, 0.000000, -0.000000 
3461295418.641390, -0.093419, -0.987246, -0.000000, -0.000000 
3471300684.570827, -0.144022, -0.981034, -0.000000, -0.000000 
3481305950.500263, -0.194171, -0.972303, -0.000000, -0.000000 
3491311216.429700, -0.243777, -0.961097, -0.000000, -0.000000 
3501316482.359137, -0.292762, -0.947446, -0.000000, 0.000000 
3511321748.288573, -0.341038, -0.931364, -0.000000, 0.000000 
3521327014.218009, -0.388506, -0.912854, -0.000000, 0.000000 
3531332280.147446, -0.435049, -0.891917, -0.000000, 0.000000 
3541337546.076883, -0.480530, -0.868565, 0.000000, 0.000000 
3551342812.006319, -0.524796, -0.842825, 0.000000, 0.000000 
3561348077.935756, -0.567684, -0.814750, 0.000000, 0.000000 
3571353343.865192, -0.609036, -0.784421, 0.000000, 0.000000 
3581358609.794629, -0.648702, -0.751943, 0.000000, -0.000000 
3591363875.724065, -0.686554, -0.717445, 0.000000, -0.000000 
3601369141.653502, -0.722491, -0.681064, 0.000000, -0.000000 
3611374407.582939, -0.756436, -0.642939, 0.000000, -0.000000 
3621379673.512375, -0.788336, -0.603203, -0.000000, -0.000000 
3631384939.441812, -0.818151, -0.561970, -0.000000, -0.000000 
3641390205.371248, -0.845848, -0.519340, -0.000000, -0.000000 
3651395471.300684, -0.871392, -0.475396, -0.000000, 0.000000 
3661400737.230121, -0.894733, -0.430210, -0.000000, 0.000000 
3671406003.159558, -0.915809, -0.383856, -0.000000, 0.000000 
3681411269.088995, -0.934540, -0.336413, -0.000000, 0.000000 
3691416535.018431, -0.950837, -0.287979, 0.000000, 0.000000 
3701421800.947867, -0.964610, -0.238676, 0.000000, 0.000000 
3711427066.877304, -0.975775, -0.188648, 0.000000, 0.000000 
3721432332.806740, -0.984267, -0.138064, 0.000000, 0.000000 
3731437598.736177, -0.990047, -0.087103, 0.000000, -0.000000 
3741442864.665614, -0.993104, -0.035952, 0.000000, -0.000000 
3751448130.595050, -0.993459, 0.015212, 0.000000, -0.000000 
3761453396.524487, -0.991156, 0.066224, 0.000000, -0.000000 
3771458662.453923, -0.986252, 0.116945, -0.000000, -0.000000 
3781463928.383360, -0.978811, 0.167260, -0.000000, -0.000000 
3791469194.312796, -0.968891, 0.217073, -0.000000, -0.000000 
3801474460.242233, -0.956535, 0.266306, -0.000000, -0.000000 
3811479726.171669, -0.941771, 0.314883, -0.000000, 0.000000 
3821484992.101106, -0.924605, 0.362723, -0.000000, 0.000000 
3831490258.030542, -0.905037, 0.409730, -0.000000, 0.000000 
3841495523.959979, -0.883060, 0.455788, -0.000000, 0.000000 
3851500789.889416, -0.858678, 0.500755, 0.000000, 0.000000 
3861506055.818852, -0.831911, 0.544473, 0.000000, 0.000000 
3871511321.748289, -0.802810, 0.586770, 0.000000, 0.000000 
3881516587.677725, -0.771455, 0.627474, 0.000000, -0.000000 
3891521853.607162, -0.737960, 0.666426, 0.000000, -0.000000 
3901527119.536598, -0.702462, 0.703485, 0.000000, -0.000000 
3911532385.466035, -0.665116, 0.738544, 0.000000, -0.000000 
3921537651.395472, -0.626081, 0.771525, -0.000000, -0.000000 
3931542917.324908, -0.585508, 0.802382, -0.000000, -0.000000 
3941548183.254344, -0.543531, 0.831089, -0.000000, -0.000000 
3951553449.183781, -0.500262, 0.857636, -0.000000, -0.000000 
3961558715.113217, -0.455788, 0.882009, -0.000000, 0.000000 
3971563981.042654, -0.410177, 0.904186, -0.000000, 0.000000 
3981569246.972091, -0.363487, 0.924127, -0.000000, 0.000000 
3991574512.901527, -0.315777, 0.941768, -0.000000, 0.000000 
4001579778.830964, -0.267117, 0.957026, 0.000000, 0.000000 
4011585044.760400, -0.217602, 0.969804, 0.000000, 0.000000 
4021590310.689837, -0.167352, 0.980002, 0.000000, 0.000000 
4031595576.619273, -0.116522, 0.987529, 0.000000, 0.000000 
4041600842.548710, -0.065289, 0.992315, 0.000000, -0.000000 
4051606108.478147, -0.013851, 0.994318, 0.000000, -0.000000 
4061611374.407583, 0.037588, 0.993535, 0.000000, -0.000000 
4071616640.337019, 0.088832, 0.989994, 0.000000, -0.000000 
4081621906.266456, 0.139702, 0.983758, -0.000000, -0.000000 
