# stacked metamaterial geometry 
# f [Hz], L [0.001 m]
# Unitcell size lx, ly, lz = 20, 20, 149.896 at center position x = 0 y = 0 z = 0
# Definition of material properties: 
#name = FR4,type = const,Epsilon = 4.5,tand = 0.025,f0 = 10000000000,
#name = copper,type = const,Kappa = 56000000,
#name = copperRings,EpsilonPlasmaFrequency = 250000000000000,EpsilonRelaxTime = 1.6e-13,Kappa = 56000000,type = const,
#name = air,type = const,Epsilon = 1,
## layer number 1:
# rect patch made of copper lx, ly, lz = 20, 20, 0.5 at center position x = 0 y = 0 z = -0.25
# layer number 2:
# rect patch made of FR4 lx, ly, lz = 20, 20, 2 at center position x = 0 y = 0 z = -1.5
# layer number 3:
# circular rings made of copperRings at center position x = 0 y = 0 z = -2.525
# radius R1, R2=9.8, 5.1 ringwidths w1, w2=1.5, 0.5, background material air
# Re/Im parts of the scattering parameters S11 (refl.) and S21 (transm.) as a function of frequency 
# first column is frequency, second and third columns are Re/Im of S11 and S21, respectively.
# Parameters of Metamaterial are: 
1000000000.000000, -0.355808, -0.931454, -0.000000, 0.000000 
1010005265.929437, -0.402084, -0.912053, -0.000000, 0.000000 
1020010531.858873, -0.447402, -0.890576, -0.000000, 0.000000 
1030015797.788310, -0.491744, -0.867007, -0.000000, 0.000000 
1040021063.717746, -0.535054, -0.841300, 0.000000, 0.000000 
1050026329.647183, -0.577229, -0.813408, 0.000000, 0.000000 
1060031595.576619, -0.618122, -0.783302, 0.000000, 0.000000 
1070036861.506056, -0.657551, -0.750986, 0.000000, 0.000000 
1080042127.435492, -0.695320, -0.716512, 0.000000, 0.000000 
1090047393.364929, -0.731236, -0.679981, 0.000000, -0.000000 
1100052659.294365, -0.765130, -0.641538, 0.000000, -0.000000 
1110057925.223802, -0.796871, -0.601358, 0.000000, -0.000000 
1120063191.153239, -0.826371, -0.559628, 0.000000, -0.000000 
1130068457.082675, -0.853586, -0.516530, -0.000000, -0.000000 
1140073723.012112, -0.878505, -0.472223, -0.000000, -0.000000 
1150078988.941548, -0.901137, -0.426839, -0.000000, -0.000000 
1160084254.870985, -0.921495, -0.380476, -0.000000, -0.000000 
1170089520.800421, -0.939580, -0.333203, -0.000000, 0.000000 
1180094786.729858, -0.955372, -0.285074, -0.000000, 0.000000 
1190100052.659294, -0.968821, -0.236139, -0.000000, 0.000000 
1200105318.588731, -0.979851, -0.186460, -0.000000, 0.000000 
1210110584.518167, -0.988366, -0.136125, -0.000000, 0.000000 
1220115850.447604, -0.994262, -0.085255, 0.000000, 0.000000 
1230121116.377041, -0.997444, -0.034012, 0.000000, 0.000000 
1240126382.306477, -0.997843, 0.017411, 0.000000, 0.000000 
1250131648.235914, -0.995428, 0.068796, 0.000000, 0.000000 
1260136914.165350, -0.990211, 0.119919, 0.000000, -0.000000 
1270142180.094787, -0.982253, 0.170565, 0.000000, -0.000000 
1280147446.024223, -0.971652, 0.220548, 0.000000, -0.000000 
1290152711.953660, -0.958531, 0.269718, 0.000000, -0.000000 
1300157977.883096, -0.943020, 0.317972, -0.000000, -0.000000 
1310163243.812533, -0.925239, 0.365246, -0.000000, -0.000000 
1320168509.741970, -0.905281, 0.411506, -0.000000, -0.000000 
1330173775.671406, -0.883206, 0.456738, -0.000000, -0.000000 
1340179041.600842, -0.859035, 0.500924, -0.000000, -0.000000 
1350184307.530279, -0.832756, 0.544028, -0.000000, 0.000000 
1360189573.459716, -0.804334, 0.585982, -0.000000, 0.000000 
1370194839.389152, -0.773728, 0.626679, -0.000000, 0.000000 
1380200105.318589, -0.740909, 0.665967, -0.000000, 0.000000 
1390205371.248025, -0.705879, 0.703656, 0.000000, 0.000000 
1400210637.177462, -0.668681, 0.739534, 0.000000, 0.000000 
1410215903.106898, -0.629417, 0.773383, 0.000000, 0.000000 
1420221169.036335, -0.588239, 0.804997, 0.000000, 0.000000 
1430226434.965771, -0.545348, 0.834205, 0.000000, -0.000000 
1440231700.895208, -0.500978, 0.860887, 0.000000, -0.000000 
1450236966.824645, -0.455374, 0.884979, 0.000000, -0.000000 
1460242232.754081, -0.408770, 0.906473, 0.000000, -0.000000 
1470247498.683518, -0.361373, 0.925410, 0.000000, -0.000000 
1480252764.612954, -0.313346, 0.941862, -0.000000, -0.000000 
1490258030.542391, -0.264804, 0.955913, -0.000000, -0.000000 
1500263296.471827, -0.215813, 0.967637, -0.000000, -0.000000 
1510268562.401264, -0.166403, 0.977083, -0.000000, -0.000000 
1520273828.330700, -0.116580, 0.984260, -0.000000, 0.000000 
1530279094.260137, -0.066349, 0.989133, -0.000000, 0.000000 
1540284360.189574, -0.015728, 0.991626, -0.000000, 0.000000 
1550289626.119010, 0.035227, 0.991629, -0.000000, 0.000000 
1560294892.048447, 0.086417, 0.989015, 0.000000, 0.000000 
1570300157.977883, 0.137693, 0.983662, 0.000000, 0.000000 
1580305423.907320, 0.188855, 0.975468, 0.000000, 0.000000 
1590310689.836756, 0.239665, 0.964372, 0.000000, 0.000000 
1600315955.766193, 0.289864, 0.950366, 0.000000, 0.000000 
1610321221.695629, 0.339191, 0.933501, 0.000000, -0.000000 
1620326487.625066, 0.387405, 0.913881, 0.000000, -0.000000 
1630331753.554502, 0.434301, 0.891654, 0.000000, -0.000000 
1640337019.483939, 0.479719, 0.866993, 0.000000, -0.000000 
1650342285.413375, 0.523554, 0.840079, -0.000000, -0.000000 
1660347551.342812, 0.565746, 0.811082, -0.000000, -0.000000 
1670352817.272249, 0.606269, 0.780145, -0.000000, -0.000000 
1680358083.201685, 0.645122, 0.747373, -0.000000, -0.000000 
1690363349.131122, 0.682304, 0.712835, -0.000000, 0.000000 
1700368615.060558, 0.717801, 0.676565, -0.000000, 0.000000 
1710373880.989995, 0.751575, 0.638573, -0.000000, 0.000000 
1720379146.919431, 0.783553, 0.598858, -0.000000, 0.000000 
1730384412.848868, 0.813625, 0.557428, -0.000000, 0.000000 
1740389678.778304, 0.841650, 0.514310, 0.000000, 0.000000 
1750394944.707741, 0.867469, 0.469565, 0.000000, 0.000000 
1760400210.637177, 0.890913, 0.423297, 0.000000, 0.000000 
1770405476.566614, 0.911822, 0.375648, 0.000000, 0.000000 
1780410742.496051, 0.930060, 0.326799, 0.000000, -0.000000 
1790416008.425487, 0.945527, 0.276956, 0.000000, -0.000000 
1800421274.354924, 0.958162, 0.226337, 0.000000, -0.000000 
1810426540.284360, 0.967942, 0.175157, 0.000000, -0.000000 
1820431806.213797, 0.974880, 0.123616, -0.000000, -0.000000 
1830437072.143233, 0.979012, 0.071890, -0.000000, -0.000000 
1840442338.072670, 0.980387, 0.020128, -0.000000, -0.000000 
1850447604.002106, 0.979051, -0.031547, -0.000000, -0.000000 
1860452869.931543, 0.975042, -0.083032, -0.000000, -0.000000 
1870458135.860980, 0.968379, -0.134235, -0.000000, 0.000000 
1880463401.790416, 0.959067, -0.185060, -0.000000, 0.000000 
1890468667.719852, 0.947094, -0.235404, -0.000000, 0.000000 
1900473933.649289, 0.932442, -0.285146, -0.000000, 0.000000 
1910479199.578726, 0.915096, -0.334142, 0.000000, 0.000000 
1920484465.508162, 0.895052, -0.382229, 0.000000, 0.000000 
1930489731.437599, 0.872327, -0.429228, 0.000000, 0.000000 
1940494997.367035, 0.846965, -0.474952, 0.000000, 0.000000 
1950500263.296472, 0.819038, -0.519219, 0.000000, -0.000000 
1960505529.225908, 0.788644, -0.561858, 0.000000, -0.000000 
1970510795.155345, 0.755898, -0.602716, 0.000000, -0.000000 
1980516061.084782, 0.720923, -0.641665, 0.000000, -0.000000 
1990521327.014218, 0.683845, -0.678599, 0.000000, -0.000000 
2000526592.943655, 0.644778, -0.713426, -0.000000, -0.000000 
2010531858.873091, 0.603823, -0.746064, -0.000000, -0.000000 
2020537124.802528, 0.561067, -0.776428, -0.000000, -0.000000 
2030542390.731964, 0.516588, -0.804418, -0.000000, -0.000000 
2040547656.661401, 0.470463, -0.829921, -0.000000, 0.000000 
2050552922.590837, 0.422777, -0.852797, -0.000000, 0.000000 
2060558188.520274, 0.373639, -0.872889, -0.000000, 0.000000 
2070563454.449710, 0.323189, -0.890029, -0.000000, 0.000000 
2080568720.379147, 0.271608, -0.904046, 0.000000, 0.000000 
2090573986.308583, 0.219118, -0.914786, 0.000000, 0.000000 
2100579252.238020, 0.165978, -0.922121, 0.000000, 0.000000 
2110584518.167457, 0.112474, -0.925967, 0.000000, 0.000000 
2120589784.096893, 0.058907, -0.926286, 0.000000, 0.000000 
2130595050.026330, 0.005570, -0.923089, 0.000000, -0.000000 
2140600315.955766, -0.047261, -0.916431, 0.000000, -0.000000 
2150605581.885203, -0.099343, -0.906394, 0.000000, -0.000000 
2160610847.814639, -0.150472, -0.893071, 0.000000, -0.000000 
2170616113.744076, -0.200476, -0.876550, -0.000000, -0.000000 
2180621379.673512, -0.249208, -0.856891, -0.000000, -0.000000 
2190626645.602949, -0.296524, -0.834119, -0.000000, -0.000000 
2200631911.532386, -0.342259, -0.808221, -0.000000, -0.000000 
2210637177.461822, -0.386204, -0.779150, -0.000000, 0.000000 
2220642443.391258, -0.428080, -0.746848, -0.000000, 0.000000 
2230647709.320695, -0.467524, -0.711273, -0.000000, 0.000000 
2240652975.250132, -0.504081, -0.672432, -0.000000, 0.000000 
2250658241.179568, -0.537213, -0.630423, -0.000000, 0.000000 
2260663507.109005, -0.566319, -0.585475, 0.000000, 0.000000 
2270668773.038442, -0.590774, -0.537978, 0.000000, 0.000000 
2280674038.967878, -0.609975, -0.488501, 0.000000, 0.000000 
2290679304.897314, -0.623401, -0.437801, 0.000000, 0.000000 
2300684570.826751, -0.630666, -0.386808, 0.000000, -0.000000 
2310689836.756187, -0.631579, -0.336588, 0.000000, -0.000000 
2320695102.685624, -0.626186, -0.288298, 0.000000, -0.000000 
2330700368.615061, -0.614796, -0.243120, 0.000000, -0.000000 
2340705634.544497, -0.597995, -0.202198, -0.000000, -0.000000 
2350710900.473934, -0.576635, -0.166560, -0.000000, -0.000000 
2360716166.403370, -0.551808, -0.137056, -0.000000, -0.000000 
2370721432.332807, -0.524800, -0.114301, -0.000000, -0.000000 
2380726698.262243, -0.497036, -0.098623, -0.000000, 0.000000 
2390731964.191680, -0.470014, -0.090039, -0.000000, 0.000000 
2400737230.121117, -0.445228, -0.088233, -0.000000, 0.000000 
2410742496.050553, -0.424092, -0.092559, -0.000000, 0.000000 
2420747761.979990, -0.407862, -0.102065, -0.000000, 0.000000 
2430753027.909426, -0.397562, -0.115531, 0.000000, 0.000000 
2440758293.838862, -0.393925, -0.131525, 0.000000, 0.000000 
2450763559.768299, -0.397346, -0.148485, 0.000000, 0.000000 
2460768825.697736, -0.407856, -0.164800, 0.000000, 0.000000 
2470774091.627172, -0.425118, -0.178904, 0.000000, -0.000000 
2480779357.556609, -0.448460, -0.189362, 0.000000, -0.000000 
2490784623.486045, -0.476915, -0.194953, 0.000000, -0.000000 
2500789889.415482, -0.509293, -0.194728, 0.000000, -0.000000 
2510795155.344918, -0.544259, -0.188048, 0.000000, -0.000000 
2520800421.274355, -0.580420, -0.174596, -0.000000, -0.000000 
2530805687.203792, -0.616403, -0.154374, -0.000000, -0.000000 
2540810953.133228, -0.650926, -0.127666, -0.000000, -0.000000 
2550816219.062665, -0.682859, -0.094996, -0.000000, -0.000000 
2560821484.992101, -0.711265, -0.057074, -0.000000, 0.000000 
2570826750.921537, -0.735417, -0.014737, -0.000000, 0.000000 
2580832016.850974, -0.754817, 0.031114, -0.000000, 0.000000 
2590837282.780411, -0.769177, 0.079566, -0.000000, 0.000000 
2600842548.709847, -0.778409, 0.129742, 0.000000, 0.000000 
2610847814.639284, -0.782590, 0.180845, 0.000000, 0.000000 
2620853080.568720, -0.781928, 0.232182, 0.000000, 0.000000 
2630858346.498157, -0.776721, 0.283185, 0.000000, 0.000000 
2640863612.427593, -0.767320, 0.333414, 0.000000, 0.000000 
2650868878.357030, -0.754085, 0.382550, 0.000000, -0.000000 
2660874144.286467, -0.737356, 0.430385, 0.000000, -0.000000 
2670879410.215903, -0.717430, 0.476791, 0.000000, -0.000000 
2680884676.145340, -0.694543, 0.521697, 0.000000, -0.000000 
2690889942.074776, -0.668865, 0.565060, -0.000000, -0.000000 
2700895208.004213, -0.640510, 0.606836, -0.000000, -0.000000 
2710900473.933649, -0.609543, 0.646960, -0.000000, -0.000000 
2720905739.863086, -0.576000, 0.685328, -0.000000, -0.000000 
2730911005.792522, -0.539914, 0.721796, -0.000000, 0.000000 
2740916271.721959, -0.501330, 0.756173, -0.000000, 0.000000 
2750921537.651396, -0.460330, 0.788236, -0.000000, 0.000000 
2760926803.580832, -0.417044, 0.817746, -0.000000, 0.000000 
2770932069.510269, -0.371658, 0.844460, 0.000000, 0.000000 
2780937335.439705, -0.324415, 0.868159, 0.000000, 0.000000 
2790942601.369142, -0.275607, 0.888667, 0.000000, 0.000000 
2800947867.298578, -0.225563, 0.905860, 0.000000, 0.000000 
2810953133.228015, -0.174622, 0.919684, 0.000000, 0.000000 
2820958399.157452, -0.123123, 0.930152, 0.000000, -0.000000 
2830963665.086888, -0.071374, 0.937336, 0.000000, -0.000000 
2840968931.016325, -0.019642, 0.941361, 0.000000, -0.000000 
2850974196.945761, 0.031863, 0.942381, 0.000000, -0.000000 
2860979462.875197, 0.082990, 0.940559, -0.000000, -0.000000 
2870984728.804634, 0.133642, 0.936048, -0.000000, -0.000000 
2880989994.734071, 0.183767, 0.928975, -0.000000, -0.000000 
2890995260.663507, 0.233343, 0.919423, -0.000000, -0.000000 
2901000526.592944, 0.282357, 0.907434, -0.000000, -0.000000 
2911005792.522380, 0.330784, 0.893004, -0.000000, 0.000000 
2921011058.451817, 0.378576, 0.876095, -0.000000, 0.000000 
2931016324.381253, 0.425645, 0.856647, -0.000000, 0.000000 
2941021590.310690, 0.471856, 0.834599, -0.000000, 0.000000 
2951026856.240127, 0.517033, 0.809904, 0.000000, 0.000000 
2961032122.169563, 0.560959, 0.782549, 0.000000, 0.000000 
2971037388.099000, 0.603397, 0.752565, 0.000000, 0.000000 
2981042654.028436, 0.644099, 0.720036, 0.000000, 0.000000 
2991047919.957872, 0.682832, 0.685099, 0.000000, -0.000000 
3001053185.887309, 0.719390, 0.647941, 0.000000, -0.000000 
3011058451.816746, 0.753611, 0.608780, 0.000000, -0.000000 
3021063717.746182, 0.785381, 0.567854, 0.000000, -0.000000 
3031068983.675619, 0.814641, 0.525402, -0.000000, -0.000000 
3041074249.605055, 0.841379, 0.481649, -0.000000, -0.000000 
3051079515.534492, 0.865619, 0.436788, -0.000000, -0.000000 
3061084781.463928, 0.887408, 0.390977, -0.000000, -0.000000 
3071090047.393365, 0.906802, 0.344331, -0.000000, -0.000000 
3081095313.322802, 0.923846, 0.296931, -0.000000, 0.000000 
3091100579.252238, 0.938564, 0.248829, -0.000000, 0.000000 
3101105845.181675, 0.950953, 0.200061, -0.000000, 0.000000 
3111111111.111111, 0.960976, 0.150660, -0.000000, 0.000000 
3121116377.040547, 0.968565, 0.100674, 0.000000, 0.000000 
3131121642.969984, 0.973632, 0.050175, 0.000000, 0.000000 
3141126908.899421, 0.976076, -0.000733, 0.000000, 0.000000 
3151132174.828857, 0.975799, -0.051909, 0.000000, 0.000000 
3161137440.758294, 0.972717, -0.103175, 0.000000, -0.000000 
3171142706.687730, 0.966778, -0.154329, 0.000000, -0.000000 
3181147972.617167, 0.957961, -0.205148, 0.000000, -0.000000 
3191153238.546604, 0.946291, -0.255407, 0.000000, -0.000000 
3201158504.476040, 0.931827, -0.304886, 0.000000, -0.000000 
3211163770.405477, 0.914667, -0.353387, -0.000000, -0.000000 
3221169036.334913, 0.894929, -0.400739, -0.000000, -0.000000 
3231174302.264350, 0.872750, -0.446802, -0.000000, -0.000000 
3241179568.193786, 0.848267, -0.491470, -0.000000, -0.000000 
3251184834.123223, 0.821610, -0.534665, -0.000000, 0.000000 
3261190100.052660, 0.792895, -0.576332, -0.000000, 0.000000 
3271195365.982096, 0.762217, -0.616427, -0.000000, 0.000000 
3281200631.911532, 0.729651, -0.654911, -0.000000, 0.000000 
3291205897.840969, 0.695256, -0.691739, 0.000000, 0.000000 
3301211163.770406, 0.659075, -0.726853, 0.000000, 0.000000 
3311216429.699842, 0.621150, -0.760180, 0.000000, 0.000000 
3321221695.629279, 0.581524, -0.791628, 0.000000, 0.000000 
3331226961.558715, 0.540251, -0.821092, 0.000000, 0.000000 
3341232227.488152, 0.497405, -0.848454, 0.000000, -0.000000 
3351237493.417588, 0.453078, -0.873593, 0.000000, -0.000000 
3361242759.347025, 0.407389, -0.896391, 0.000000, -0.000000 
3371248025.276461, 0.360474, -0.916741, 0.000000, -0.000000 
3381253291.205898, 0.312489, -0.934552, -0.000000, -0.000000 
3391258557.135334, 0.263603, -0.949754, -0.000000, -0.000000 
3401263823.064771, 0.213990, -0.962299, -0.000000, -0.000000 
3411269088.994207, 0.163824, -0.972161, -0.000000, -0.000000 
3421274354.923644, 0.113274, -0.979335, -0.000000, 0.000000 
3431279620.853081, 0.062501, -0.983833, -0.000000, 0.000000 
3441284886.782517, 0.011653, -0.985676, -0.000000, 0.000000 
3451290152.711954, -0.039133, -0.984896, -0.000000, 0.000000 
3461295418.641390, -0.089733, -0.981528, -0.000000, 0.000000 
3471300684.570827, -0.140030, -0.975607, 0.000000, 0.000000 
3481305950.500263, -0.189916, -0.967166, 0.000000, 0.000000 
3491311216.429700, -0.239287, -0.956236, 0.000000, 0.000000 
3501316482.359137, -0.288039, -0.942846, 0.000000, 0.000000 
3511321748.288573, -0.336068, -0.927021, 0.000000, -0.000000 
3521327014.218009, -0.383265, -0.908788, 0.000000, -0.000000 
3531332280.147446, -0.429519, -0.888174, 0.000000, -0.000000 
3541337546.076883, -0.474713, -0.865211, 0.000000, -0.000000 
3551342812.006319, -0.518726, -0.839938, -0.000000, -0.000000 
3561348077.935756, -0.561434, -0.812400, -0.000000, -0.000000 
3571353343.865192, -0.602708, -0.782652, -0.000000, -0.000000 
3581358609.794629, -0.642421, -0.750761, -0.000000, -0.000000 
3591363875.724065, -0.680447, -0.716804, -0.000000, -0.000000 
3601369141.653502, -0.716661, -0.680873, -0.000000, 0.000000 
3611374407.582939, -0.750946, -0.643069, -0.000000, 0.000000 
3621379673.512375, -0.783192, -0.603507, -0.000000, 0.000000 
3631384939.441812, -0.813299, -0.562311, -0.000000, 0.000000 
3641390205.371248, -0.841179, -0.519613, 0.000000, 0.000000 
3651395471.300684, -0.866758, -0.475553, 0.000000, 0.000000 
3661400737.230121, -0.889979, -0.430273, 0.000000, 0.000000 
3671406003.159558, -0.910795, -0.383914, 0.000000, 0.000000 
3681411269.088995, -0.929175, -0.336614, 0.000000, -0.000000 
3691416535.018431, -0.945100, -0.288505, 0.000000, -0.000000 
3701421800.947867, -0.958556, -0.239712, 0.000000, -0.000000 
3711427066.877304, -0.969536, -0.190350, 0.000000, -0.000000 
3721432332.806740, -0.978033, -0.140526, 0.000000, -0.000000 
3731437598.736177, -0.984038, -0.090344, -0.000000, -0.000000 
3741442864.665614, -0.987536, -0.039902, -0.000000, -0.000000 
3751448130.595050, -0.988508, 0.010698, -0.000000, -0.000000 
3761453396.524487, -0.986931, 0.061352, -0.000000, -0.000000 
3771458662.453923, -0.982779, 0.111943, -0.000000, 0.000000 
3781463928.383360, -0.976025, 0.162345, -0.000000, 0.000000 
3791469194.312796, -0.966652, 0.212419, -0.000000, 0.000000 
3801474460.242233, -0.954650, 0.262013, -0.000000, 0.000000 
3811479726.171669, -0.940028, 0.310964, 0.000000, 0.000000 
3821484992.101106, -0.922811, 0.359107, 0.000000, 0.000000 
3831490258.030542, -0.903047, 0.406272, 0.000000, 0.000000 
3841495523.959979, -0.880806, 0.452298, 0.000000, 0.000000 
3851500789.889416, -0.856177, 0.497033, 0.000000, 0.000000 
3861506055.818852, -0.829263, 0.540343, 0.000000, -0.000000 
3871511321.748289, -0.800179, 0.582111, 0.000000, -0.000000 
3881516587.677725, -0.769043, 0.622242, 0.000000, -0.000000 
3891521853.607162, -0.735970, 0.660658, 0.000000, -0.000000 
3901527119.536598, -0.701070, 0.697297, -0.000000, -0.000000 
3911532385.466035, -0.664438, 0.732108, -0.000000, -0.000000 
3921537651.395472, -0.626160, 0.765041, -0.000000, -0.000000 
3931542917.324908, -0.586310, 0.796047, -0.000000, -0.000000 
3941548183.254344, -0.544955, 0.825068, -0.000000, 0.000000 
3951553449.183781, -0.502157, 0.852035, -0.000000, 0.000000 
3961558715.113217, -0.457984, 0.876870, -0.000000, 0.000000 
3971563981.042654, -0.412514, 0.899480, -0.000000, 0.000000 
3981569246.972091, -0.365839, 0.919769, -0.000000, 0.000000 
3991574512.901527, -0.318068, 0.937638, 0.000000, 0.000000 
4001579778.830964, -0.269335, 0.952991, 0.000000, 0.000000 
4011585044.760400, -0.219789, 0.965747, 0.000000, 0.000000 
4021590310.689837, -0.169598, 0.975840, 0.000000, 0.000000 
4031595576.619273, -0.118939, 0.983228, 0.000000, -0.000000 
4041600842.548710, -0.067993, 0.987894, 0.000000, -0.000000 
4051606108.478147, -0.016937, 0.989843, 0.000000, -0.000000 
4061611374.407583, 0.034060, 0.989104, 0.000000, -0.000000 
4071616640.337019, 0.084847, 0.985722, -0.000000, -0.000000 
4081621906.266456, 0.135287, 0.979751, -0.000000, -0.000000 
