# stacked metamaterial geometry 
# f [Hz], L [0.001 m]
# Unitcell size lx, ly, lz = 20.5, 20.5, 149.896 at center position x = 0 y = 0 z = 0
# Definition of material properties: 
#name = FR4,type = const,Epsilon = 4.1,tand = 0.015,f0 = 10000000000,
#name = copper,type = const,Kappa = 56000000,
#name = copperRings,EpsilonPlasmaFrequency = 250000000000000,EpsilonRelaxTime = 1.6e-13,Kappa = 56000000,type = const,
#name = air,type = const,Epsilon = 1,
## layer number 1:
# rect patch made of copper lx, ly, lz = 20.5, 20.5, 0.5 at center position x = 0 y = 0 z = -0.25
# layer number 2:
# rect patch made of FR4 lx, ly, lz = 20.5, 20.5, 2 at center position x = 0 y = 0 z = -1.5
# layer number 3:
# circular rings made of copperRings at center position x = 0 y = 0 z = -2.525
# radius R1, R2=9.8, 5.1 ringwidths w1, w2=1.5, 0.5, background material air
# Re/Im parts of the scattering parameters S11 (refl.) and S21 (transm.) as a function of frequency 
# first column is frequency, second and third columns are Re/Im of S11 and S21, respectively.
# Parameters of Metamaterial are: 
1000000000.000000, -0.354324, -0.933413, 0.000000, 0.000000 
1010005265.929437, -0.401177, -0.914232, 0.000000, 0.000000 
1020010531.858873, -0.447046, -0.892684, 0.000000, 0.000000 
1030015797.788310, -0.491781, -0.868806, 0.000000, 0.000000 
1040021063.717746, -0.535231, -0.842665, 0.000000, -0.000000 
1050026329.647183, -0.577263, -0.814356, 0.000000, -0.000000 
1060031595.576619, -0.617768, -0.783989, 0.000000, -0.000000 
1070036861.506056, -0.656668, -0.751679, 0.000000, -0.000000 
1080042127.435492, -0.693912, -0.717526, -0.000000, -0.000000 
1090047393.364929, -0.729461, -0.681610, -0.000000, -0.000000 
1100052659.294365, -0.763277, -0.643981, -0.000000, -0.000000 
1110057925.223802, -0.795309, -0.604666, -0.000000, -0.000000 
1120063191.153239, -0.825473, -0.563683, -0.000000, 0.000000 
1130068457.082675, -0.853653, -0.521047, -0.000000, 0.000000 
1140073723.012112, -0.879696, -0.476801, -0.000000, 0.000000 
1150078988.941548, -0.903427, -0.431024, -0.000000, 0.000000 
1160084254.870985, -0.924660, -0.383848, 0.000000, 0.000000 
1170089520.800421, -0.943225, -0.335462, 0.000000, 0.000000 
1180094786.729858, -0.958990, -0.286109, 0.000000, 0.000000 
1190100052.659294, -0.971883, -0.236062, 0.000000, 0.000000 
1200105318.588731, -0.981904, -0.185607, 0.000000, -0.000000 
1210110584.518167, -0.989124, -0.135011, 0.000000, -0.000000 
1220115850.447604, -0.993675, -0.084494, 0.000000, -0.000000 
1230121116.377041, -0.995724, -0.034207, 0.000000, -0.000000 
1240126382.306477, -0.995446, 0.015775, 0.000000, -0.000000 
1250131648.235914, -0.992987, 0.065445, -0.000000, -0.000000 
1260136914.165350, -0.988444, 0.114856, -0.000000, -0.000000 
1270142180.094787, -0.981838, 0.164082, -0.000000, -0.000000 
1280147446.024223, -0.973116, 0.213195, -0.000000, -0.000000 
1290152711.953660, -0.962152, 0.262226, -0.000000, 0.000000 
1300157977.883096, -0.948772, 0.311139, -0.000000, 0.000000 
1310163243.812533, -0.932782, 0.359816, -0.000000, 0.000000 
1320168509.741970, -0.914003, 0.408044, -0.000000, 0.000000 
1330173775.671406, -0.892310, 0.455530, 0.000000, 0.000000 
1340179041.600842, -0.867662, 0.501924, 0.000000, 0.000000 
1350184307.530279, -0.840121, 0.546851, 0.000000, 0.000000 
1360189573.459716, -0.809861, 0.589956, 0.000000, 0.000000 
1370194839.389152, -0.777148, 0.630944, 0.000000, -0.000000 
1380200105.318589, -0.742318, 0.669613, 0.000000, -0.000000 
1390205371.248025, -0.705730, 0.705876, 0.000000, -0.000000 
1400210637.177462, -0.667725, 0.739754, 0.000000, -0.000000 
1410215903.106898, -0.628583, 0.771367, -0.000000, -0.000000 
1420221169.036335, -0.588490, 0.800892, -0.000000, -0.000000 
1430226434.965771, -0.547530, 0.828530, -0.000000, -0.000000 
1440231700.895208, -0.505678, 0.854455, -0.000000, -0.000000 
1450236966.824645, -0.462829, 0.878779, -0.000000, 0.000000 
1460242232.754081, -0.418824, 0.901521, -0.000000, 0.000000 
1470247498.683518, -0.373495, 0.922594, -0.000000, 0.000000 
1480252764.612954, -0.326706, 0.941808, -0.000000, 0.000000 
1490258030.542391, -0.278393, 0.958889, 0.000000, 0.000000 
1500263296.471827, -0.228599, 0.973511, 0.000000, 0.000000 
1510268562.401264, -0.177482, 0.985341, 0.000000, 0.000000 
1520273828.330700, -0.125319, 0.994088, 0.000000, 0.000000 
1530279094.260137, -0.072478, 0.999540, 0.000000, 0.000000 
1540284360.189574, -0.019385, 1.001601, 0.000000, -0.000000 
1550289626.119010, 0.033524, 1.000301, 0.000000, -0.000000 
1560294892.048447, 0.085853, 0.995790, 0.000000, -0.000000 
1570300157.977883, 0.137283, 0.988315, 0.000000, -0.000000 
1580305423.907320, 0.187606, 0.978178, -0.000000, -0.000000 
1590310689.836756, 0.236730, 0.965695, -0.000000, -0.000000 
1600315955.766193, 0.284673, 0.951147, -0.000000, -0.000000 
1610321221.695629, 0.331540, 0.934743, -0.000000, -0.000000 
1620326487.625066, 0.377483, 0.916598, -0.000000, 0.000000 
1630331753.554502, 0.422664, 0.896718, -0.000000, 0.000000 
1640337019.483939, 0.467207, 0.875013, -0.000000, 0.000000 
1650342285.413375, 0.511168, 0.851313, -0.000000, 0.000000 
1660347551.342812, 0.554505, 0.825408, 0.000000, 0.000000 
1670352817.272249, 0.597067, 0.797083, 0.000000, 0.000000 
1680358083.201685, 0.638602, 0.766169, 0.000000, 0.000000 
1690363349.131122, 0.678782, 0.732570, 0.000000, 0.000000 
1700368615.060558, 0.717229, 0.696299, 0.000000, -0.000000 
1710373880.989995, 0.753566, 0.657480, 0.000000, -0.000000 
1720379146.919431, 0.787457, 0.616346, 0.000000, -0.000000 
1730384412.848868, 0.818638, 0.573214, 0.000000, -0.000000 
1740389678.778304, 0.846950, 0.528452, -0.000000, -0.000000 
1750394944.707741, 0.872339, 0.482438, -0.000000, -0.000000 
1760400210.637177, 0.894854, 0.435521, -0.000000, -0.000000 
1770405476.566614, 0.914623, 0.387988, -0.000000, -0.000000 
1780410742.496051, 0.931826, 0.340047, -0.000000, 0.000000 
1790416008.425487, 0.946659, 0.291810, -0.000000, 0.000000 
1800421274.354924, 0.959299, 0.243304, -0.000000, 0.000000 
1810426540.284360, 0.969873, 0.194487, -0.000000, 0.000000 
1820431806.213797, 0.978438, 0.145269, -0.000000, 0.000000 
1830437072.143233, 0.984968, 0.095547, 0.000000, 0.000000 
1840442338.072670, 0.989359, 0.045239, 0.000000, 0.000000 
1850447604.002106, 0.991438, -0.005689, 0.000000, 0.000000 
1860452869.931543, 0.990990, -0.057198, 0.000000, 0.000000 
1870458135.860980, 0.987787, -0.109166, 0.000000, -0.000000 
1880463401.790416, 0.981621, -0.161387, 0.000000, -0.000000 
1890468667.719852, 0.972332, -0.213581, 0.000000, -0.000000 
1900473933.649289, 0.959828, -0.265421, 0.000000, -0.000000 
1910479199.578726, 0.944105, -0.316553, -0.000000, -0.000000 
1920484465.508162, 0.925240, -0.366630, -0.000000, -0.000000 
1930489731.437599, 0.903391, -0.415340, -0.000000, -0.000000 
1940494997.367035, 0.878772, -0.462423, -0.000000, -0.000000 
1950500263.296472, 0.851639, -0.507691, -0.000000, 0.000000 
1960505529.225908, 0.822257, -0.551027, -0.000000, 0.000000 
1970510795.155345, 0.790883, -0.592391, -0.000000, 0.000000 
1980516061.084782, 0.757736, -0.631803, -0.000000, 0.000000 
1990521327.014218, 0.722985, -0.669326, 0.000000, 0.000000 
2000526592.943655, 0.686735, -0.705048, 0.000000, 0.000000 
2010531858.873091, 0.649025, -0.739055, 0.000000, 0.000000 
2020537124.802528, 0.609836, -0.771404, 0.000000, 0.000000 
2030542390.731964, 0.569100, -0.802109, 0.000000, -0.000000 
2040547656.661401, 0.526727, -0.831118, 0.000000, -0.000000 
2050552922.590837, 0.482624, -0.858311, 0.000000, -0.000000 
2060558188.520274, 0.436727, -0.883501, 0.000000, -0.000000 
2070563454.449710, 0.389020, -0.906446, -0.000000, -0.000000 
2080568720.379147, 0.339558, -0.926867, -0.000000, -0.000000 
2090573986.308583, 0.288474, -0.944474, -0.000000, -0.000000 
2100579252.238020, 0.235987, -0.958992, -0.000000, -0.000000 
2110584518.167457, 0.182389, -0.970192, -0.000000, -0.000000 
2120589784.096893, 0.128034, -0.977909, -0.000000, 0.000000 
2130595050.026330, 0.073312, -0.982066, -0.000000, 0.000000 
2140600315.955766, 0.018619, -0.982680, -0.000000, 0.000000 
2150605581.885203, -0.035673, -0.979862, -0.000000, 0.000000 
2160610847.814639, -0.089248, -0.973804, 0.000000, 0.000000 
2170616113.744076, -0.141872, -0.964756, 0.000000, 0.000000 
2180621379.673512, -0.193410, -0.952991, 0.000000, 0.000000 
2190626645.602949, -0.243828, -0.938773, 0.000000, 0.000000 
2200631911.532386, -0.293183, -0.922309, 0.000000, -0.000000 
2210637177.461822, -0.341595, -0.903725, 0.000000, -0.000000 
2220642443.391258, -0.389214, -0.883041, 0.000000, -0.000000 
2230647709.320695, -0.436171, -0.860163, 0.000000, -0.000000 
2240652975.250132, -0.482536, -0.834897, -0.000000, -0.000000 
2250658241.179568, -0.528278, -0.806975, -0.000000, -0.000000 
2260663507.109005, -0.573238, -0.776097, -0.000000, -0.000000 
2270668773.038442, -0.617119, -0.741980, -0.000000, -0.000000 
2280674038.967878, -0.659493, -0.704411, -0.000000, 0.000000 
2290679304.897314, -0.699829, -0.663294, -0.000000, 0.000000 
2300684570.826751, -0.737540, -0.618685, -0.000000, 0.000000 
2310689836.756187, -0.772035, -0.570809, -0.000000, 0.000000 
2320695102.685624, -0.802783, -0.520058, 0.000000, 0.000000 
2330700368.615061, -0.829368, -0.466964, 0.000000, 0.000000 
2340705634.544497, -0.851542, -0.412144, 0.000000, 0.000000 
2350710900.473934, -0.869237, -0.356242, 0.000000, 0.000000 
2360716166.403370, -0.882574, -0.299849, 0.000000, -0.000000 
2370721432.332807, -0.891823, -0.243438, 0.000000, -0.000000 
2380726698.262243, -0.897342, -0.187309, 0.000000, -0.000000 
2390731964.191680, -0.899502, -0.131562, 0.000000, -0.000000 
2400737230.121117, -0.898597, -0.076106, -0.000000, -0.000000 
2410742496.050553, -0.894758, -0.020696, -0.000000, -0.000000 
2420747761.979990, -0.887892, 0.034985, -0.000000, -0.000000 
2430753027.909426, -0.877643, 0.091234, -0.000000, -0.000000 
2440758293.838862, -0.863403, 0.148210, -0.000000, 0.000000 
2450763559.768299, -0.844347, 0.205826, -0.000000, 0.000000 
2460768825.697736, -0.819534, 0.263656, -0.000000, 0.000000 
2470774091.627172, -0.788017, 0.320869, -0.000000, 0.000000 
2480779357.556609, -0.749004, 0.376207, -0.000000, 0.000000 
2490784623.486045, -0.702005, 0.428025, 0.000000, 0.000000 
2500789889.415482, -0.646986, 0.474372, 0.000000, 0.000000 
2510795155.344918, -0.584484, 0.513139, 0.000000, 0.000000 
2520800421.274355, -0.515675, 0.542239, 0.000000, 0.000000 
2530805687.203792, -0.442386, 0.559809, 0.000000, -0.000000 
2540810953.133228, -0.367024, 0.564422, 0.000000, -0.000000 
2550816219.062665, -0.292455, 0.555261, 0.000000, -0.000000 
2560821484.992101, -0.221819, 0.532259, 0.000000, -0.000000 
2570826750.921537, -0.158310, 0.496172, -0.000000, -0.000000 
2580832016.850974, -0.104946, 0.448585, -0.000000, -0.000000 
2590837282.780411, -0.064336, 0.391853, -0.000000, -0.000000 
2600842548.709847, -0.038483, 0.328974, -0.000000, -0.000000 
2610847814.639284, -0.028624, 0.263417, -0.000000, 0.000000 
2620853080.568720, -0.035116, 0.198911, -0.000000, 0.000000 
2630858346.498157, -0.057391, 0.139203, -0.000000, 0.000000 
2640863612.427593, -0.093974, 0.087823, -0.000000, 0.000000 
2650868878.357030, -0.142557, 0.047844, 0.000000, 0.000000 
2660874144.286467, -0.200152, 0.021680, 0.000000, 0.000000 
2670879410.215903, -0.263282, 0.010921, 0.000000, 0.000000 
2680884676.145340, -0.328225, 0.016240, 0.000000, 0.000000 
2690889942.074776, -0.391274, 0.037365, 0.000000, -0.000000 
2700895208.004213, -0.448985, 0.073135, 0.000000, -0.000000 
2710900473.933649, -0.498412, 0.121621, 0.000000, -0.000000 
2720905739.863086, -0.537269, 0.180319, 0.000000, -0.000000 
2730911005.792522, -0.564042, 0.246368, 0.000000, -0.000000 
2740916271.721959, -0.578014, 0.316785, -0.000000, -0.000000 
2750921537.651396, -0.579227, 0.388688, -0.000000, -0.000000 
2760926803.580832, -0.568378, 0.459487, -0.000000, -0.000000 
2770932069.510269, -0.546677, 0.527015, -0.000000, -0.000000 
2780937335.439705, -0.515680, 0.589620, -0.000000, 0.000000 
2790942601.369142, -0.477116, 0.646192, -0.000000, 0.000000 
2800947867.298578, -0.432732, 0.696137, -0.000000, 0.000000 
2810953133.228015, -0.384152, 0.739322, -0.000000, 0.000000 
2820958399.157452, -0.332779, 0.775973, 0.000000, 0.000000 
2830963665.086888, -0.279731, 0.806573, 0.000000, 0.000000 
2840968931.016325, -0.225815, 0.831745, 0.000000, 0.000000 
2850974196.945761, -0.171535, 0.852144, 0.000000, 0.000000 
2860979462.875197, -0.117141, 0.868365, 0.000000, -0.000000 
2870984728.804634, -0.062682, 0.880879, 0.000000, -0.000000 
2880989994.734071, -0.008090, 0.889995, 0.000000, -0.000000 
2890995260.663507, 0.046751, 0.895852, 0.000000, -0.000000 
2901000526.592944, 0.101931, 0.898430, -0.000000, -0.000000 
2911005792.522380, 0.157463, 0.897597, -0.000000, -0.000000 
2921011058.451817, 0.213250, 0.893150, -0.000000, -0.000000 
2931016324.381253, 0.269073, 0.884874, -0.000000, -0.000000 
2941021590.310690, 0.324599, 0.872590, -0.000000, 0.000000 
2951026856.240127, 0.379405, 0.856200, -0.000000, 0.000000 
2961032122.169563, 0.433019, 0.835715, -0.000000, 0.000000 
2971037388.099000, 0.484956, 0.811263, -0.000000, 0.000000 
2981042654.028436, 0.534768, 0.783091, 0.000000, 0.000000 
2991047919.957872, 0.582076, 0.751544, 0.000000, 0.000000 
3001053185.887309, 0.626602, 0.717033, 0.000000, 0.000000 
3011058451.816746, 0.668181, 0.680001, 0.000000, 0.000000 
3021063717.746182, 0.706763, 0.640881, 0.000000, 0.000000 
3031068983.675619, 0.742400, 0.600058, 0.000000, -0.000000 
3041074249.605055, 0.775217, 0.557847, 0.000000, -0.000000 
3051079515.534492, 0.805383, 0.514468, 0.000000, -0.000000 
3061084781.463928, 0.833071, 0.470048, 0.000000, -0.000000 
3071090047.393365, 0.858429, 0.424629, -0.000000, -0.000000 
3081095313.322802, 0.881546, 0.378191, -0.000000, -0.000000 
3091100579.252238, 0.902442, 0.330677, -0.000000, -0.000000 
3101105845.181675, 0.921057, 0.282025, -0.000000, -0.000000 
3111111111.111111, 0.937262, 0.232206, -0.000000, 0.000000 
3121116377.040547, 0.950871, 0.181238, -0.000000, 0.000000 
3131121642.969984, 0.961671, 0.129216, -0.000000, 0.000000 
3141126908.899421, 0.969450, 0.076308, -0.000000, 0.000000 
3151132174.828857, 0.974023, 0.022757, 0.000000, 0.000000 
3161137440.758294, 0.975261, -0.031135, 0.000000, 0.000000 
3171142706.687730, 0.973106, -0.085028, 0.000000, 0.000000 
3181147972.617167, 0.967582, -0.138576, 0.000000, 0.000000 
3191153238.546604, 0.958791, -0.191450, 0.000000, -0.000000 
3201158504.476040, 0.946902, -0.243368, 0.000000, -0.000000 
3211163770.405477, 0.932128, -0.294110, 0.000000, -0.000000 
3221169036.334913, 0.914700, -0.343526, 0.000000, -0.000000 
3231174302.264350, 0.894844, -0.391539, -0.000000, -0.000000 
3241179568.193786, 0.872753, -0.438130, -0.000000, -0.000000 
3251184834.123223, 0.848571, -0.483321, -0.000000, -0.000000 
3261190100.052660, 0.822386, -0.527151, -0.000000, -0.000000 
3271195365.982096, 0.794230, -0.569652, -0.000000, 0.000000 
3281200631.911532, 0.764088, -0.610828, -0.000000, 0.000000 
3291205897.840969, 0.731915, -0.650636, -0.000000, 0.000000 
3301211163.770406, 0.697658, -0.688983, -0.000000, 0.000000 
3311216429.699842, 0.661278, -0.725722, 0.000000, 0.000000 
3321221695.629279, 0.622771, -0.760661, 0.000000, 0.000000 
3331226961.558715, 0.582184, -0.793584, 0.000000, 0.000000 
3341232227.488152, 0.539620, -0.824264, 0.000000, 0.000000 
3351237493.417588, 0.495242, -0.852491, 0.000000, 0.000000 
3361242759.347025, 0.449263, -0.878087, 0.000000, -0.000000 
3371248025.276461, 0.401930, -0.900926, 0.000000, -0.000000 
3381253291.205898, 0.353503, -0.920937, 0.000000, -0.000000 
3391258557.135334, 0.304240, -0.938106, 0.000000, -0.000000 
3401263823.064771, 0.254374, -0.952470, -0.000000, -0.000000 
3411269088.994207, 0.204099, -0.964100, -0.000000, -0.000000 
3421274354.923644, 0.153567, -0.973085, -0.000000, -0.000000 
3431279620.853081, 0.102884, -0.979516, -0.000000, -0.000000 
3441284886.782517, 0.052119, -0.983465, -0.000000, 0.000000 
3451290152.711954, 0.001316, -0.984978, -0.000000, 0.000000 
3461295418.641390, -0.049492, -0.984065, -0.000000, 0.000000 
3471300684.570827, -0.100266, -0.980703, -0.000000, 0.000000 
3481305950.500263, -0.150944, -0.974842, 0.000000, 0.000000 
3491311216.429700, -0.201437, -0.966415, 0.000000, 0.000000 
3501316482.359137, -0.251616, -0.955354, 0.000000, 0.000000 
3511321748.288573, -0.301319, -0.941604, 0.000000, 0.000000 
3521327014.218009, -0.350356, -0.925137, 0.000000, -0.000000 
3531332280.147446, -0.398517, -0.905959, 0.000000, -0.000000 
3541337546.076883, -0.445590, -0.884118, 0.000000, -0.000000 
3551342812.006319, -0.491371, -0.859701, 0.000000, -0.000000 
3561348077.935756, -0.535678, -0.832827, -0.000000, -0.000000 
3571353343.865192, -0.578358, -0.803637, -0.000000, -0.000000 
3581358609.794629, -0.619293, -0.772286, -0.000000, -0.000000 
3591363875.724065, -0.658397, -0.738927, -0.000000, -0.000000 
3601369141.653502, -0.695610, -0.703702, -0.000000, 0.000000 
3611374407.582939, -0.730892, -0.666735, -0.000000, 0.000000 
3621379673.512375, -0.764211, -0.628132, -0.000000, 0.000000 
3631384939.441812, -0.795536, -0.587976, -0.000000, 0.000000 
3641390205.371248, -0.824827, -0.546339, -0.000000, 0.000000 
3651395471.300684, -0.852029, -0.503285, 0.000000, 0.000000 
3661400737.230121, -0.877073, -0.458877, 0.000000, 0.000000 
3671406003.159558, -0.899875, -0.413189, 0.000000, 0.000000 
3681411269.088995, -0.920344, -0.366311, 0.000000, 0.000000 
3691416535.018431, -0.938386, -0.318351, 0.000000, -0.000000 
3701421800.947867, -0.953912, -0.269438, 0.000000, -0.000000 
3711427066.877304, -0.966846, -0.219718, 0.000000, -0.000000 
3721432332.806740, -0.977127, -0.169350, 0.000000, -0.000000 
3731437598.736177, -0.984719, -0.118503, -0.000000, -0.000000 
3741442864.665614, -0.989602, -0.067344, -0.000000, -0.000000 
3751448130.595050, -0.991778, -0.016036, -0.000000, -0.000000 
3761453396.524487, -0.991263, 0.035264, -0.000000, -0.000000 
3771458662.453923, -0.988084, 0.086413, -0.000000, 0.000000 
3781463928.383360, -0.982273, 0.137276, -0.000000, 0.000000 
3791469194.312796, -0.973865, 0.187728, -0.000000, 0.000000 
3801474460.242233, -0.962895, 0.237650, -0.000000, 0.000000 
3811479726.171669, -0.949396, 0.286925, 0.000000, 0.000000 
3821484992.101106, -0.933402, 0.335438, 0.000000, 0.000000 
3831490258.030542, -0.914950, 0.383068, 0.000000, 0.000000 
3841495523.959979, -0.894078, 0.429695, 0.000000, 0.000000 
3851500789.889416, -0.870836, 0.475194, 0.000000, -0.000000 
3861506055.818852, -0.845278, 0.519442, 0.000000, -0.000000 
3871511321.748289, -0.817472, 0.562316, 0.000000, -0.000000 
3881516587.677725, -0.787492, 0.603698, 0.000000, -0.000000 
3891521853.607162, -0.755423, 0.643477, -0.000000, -0.000000 
3901527119.536598, -0.721353, 0.681547, -0.000000, -0.000000 
3911532385.466035, -0.685378, 0.717814, -0.000000, -0.000000 
3921537651.395472, -0.647593, 0.752188, -0.000000, -0.000000 
3931542917.324908, -0.608094, 0.784584, -0.000000, -0.000000 
3941548183.254344, -0.566978, 0.814922, -0.000000, 0.000000 
3951553449.183781, -0.524344, 0.843121, -0.000000, 0.000000 
3961558715.113217, -0.480294, 0.869104, -0.000000, 0.000000 
3971563981.042654, -0.434937, 0.892791, -0.000000, 0.000000 
3981569246.972091, -0.388387, 0.914105, 0.000000, 0.000000 
3991574512.901527, -0.340771, 0.932976, 0.000000, 0.000000 
4001579778.830964, -0.292222, 0.949337, 0.000000, 0.000000 
4011585044.760400, -0.242886, 0.963135, 0.000000, 0.000000 
4021590310.689837, -0.192912, 0.974327, 0.000000, -0.000000 
4031595576.619273, -0.142453, 0.982890, 0.000000, -0.000000 
4041600842.548710, -0.091663, 0.988811, 0.000000, -0.000000 
4051606108.478147, -0.040689, 0.992096, 0.000000, -0.000000 
4061611374.407583, 0.010328, 0.992760, -0.000000, -0.000000 
4071616640.337019, 0.061260, 0.990826, -0.000000, -0.000000 
4081621906.266456, 0.111986, 0.986322, -0.000000, -0.000000 
