# stacked metamaterial geometry 
# f [Hz], L [0.001 m]
# Unitcell size lx, ly, lz = 20, 20, 299.792 at center position x = 0 y = 0 z = 0
# Definition of material properties: 
#name = FR4,Epsilon = 4.4,tand = 0.02,f0 = 5000000000,type = const,
#name = copper,type = const,EpsilonPlasmaFrequency = 250000000000000,EpsilonRelaxTime = 1.6e-13,Kappa = 56000000,
#name = copperRings,EpsilonPlasmaFrequency = 250000000000000,EpsilonRelaxTime = 1.6e-13,Kappa = 56000000,type = const,
#name = air,type = const,Epsilon = 1,
## layer number 1:
# rect patch made of copper lx, ly, lz = 20, 20, 0.5 at center position x = 0 y = 0 z = -0.25
# layer number 2:
# rect patch made of FR4 lx, ly, lz = 20, 20, 2 at center position x = 0 y = 0 z = -1.5
# layer number 3:
# circular rings made of copperRings at center position x = 0 y = 0 z = -2.525
# radius R1, R2=9.8, 5.3 ringwidths w1, w2=1.5, 0.7, background material air
# Re/Im parts of the scattering parameters S11 (refl.) and S21 (transm.) as a function of frequency 
# first column is frequency, second column is S11
# Parameters of Metamaterial are: 
1000000000.000000, 0.410654, -0.911272, 0.000000, -0.000000 
1010005265.929437, 0.311874, -0.950163, -0.000000, -0.000000 
1020010531.858873, 0.209156, -0.978186, -0.000000, -0.000000 
1030015797.788310, 0.103897, -0.994777, -0.000000, 0.000000 
1040021063.717746, -0.002369, -0.999724, -0.000000, 0.000000 
1050026329.647183, -0.108160, -0.993193, 0.000000, 0.000000 
1060031595.576619, -0.212217, -0.975624, 0.000000, 0.000000 
1070036861.506056, -0.313569, -0.947541, 0.000000, -0.000000 
1080042127.435492, -0.411455, -0.909374, 0.000000, -0.000000 
1090047393.364929, -0.505140, -0.861381, 0.000000, -0.000000 
1100052659.294365, -0.593731, -0.803721, -0.000000, -0.000000 
1110057925.223802, -0.676095, -0.736647, -0.000000, -0.000000 
1120063191.153239, -0.750933, -0.660707, -0.000000, 0.000000 
1130068457.082675, -0.816983, -0.576854, -0.000000, 0.000000 
1140073723.012112, -0.873259, -0.486396, 0.000000, 0.000000 
1150078988.941548, -0.919194, -0.390786, 0.000000, 0.000000 
1160084254.870985, -0.954623, -0.291375, 0.000000, -0.000000 
1170089520.800421, -0.979596, -0.189248, 0.000000, -0.000000 
1180094786.729858, -0.994139, -0.085218, -0.000000, -0.000000 
1190100052.659294, -0.998090, 0.020000, -0.000000, -0.000000 
1200105318.588731, -0.991094, 0.125562, -0.000000, -0.000000 
1210110584.518167, -0.972770, 0.230320, -0.000000, 0.000000 
1220115850.447604, -0.942958, 0.332814, -0.000000, 0.000000 
1230121116.377041, -0.901918, 0.431436, 0.000000, 0.000000 
1240126382.306477, -0.850361, 0.524696, 0.000000, 0.000000 
1250131648.235914, -0.789306, 0.611435, 0.000000, -0.000000 
1260136914.165350, -0.719832, 0.690893, 0.000000, -0.000000 
1270142180.094787, -0.642857, 0.762598, -0.000000, -0.000000 
1280147446.024223, -0.559064, 0.826140, -0.000000, -0.000000 
1290152711.953660, -0.468994, 0.880971, -0.000000, 0.000000 
1300157977.883096, -0.373257, 0.926322, -0.000000, 0.000000 
1310163243.812533, -0.272736, 0.961307, -0.000000, 0.000000 
1320168509.741970, -0.168670, 0.985126, 0.000000, 0.000000 
1330173775.671406, -0.062578, 0.997290, 0.000000, 0.000000 
1340179041.600842, 0.043952, 0.997730, 0.000000, -0.000000 
1350184307.530279, 0.149482, 0.986746, 0.000000, -0.000000 
1360189573.459716, 0.252851, 0.964836, -0.000000, -0.000000 
1370194839.389152, 0.353164, 0.932497, -0.000000, -0.000000 
1380200105.318589, 0.449646, 0.890097, -0.000000, 0.000000 
1390205371.248025, 0.541470, 0.837883, -0.000000, 0.000000 
1400210637.177462, 0.627640, 0.776102, 0.000000, 0.000000 
1410215903.106898, 0.706992, 0.705178, 0.000000, 0.000000 
1420221169.036335, 0.778317, 0.625834, 0.000000, -0.000000 
1430226434.965771, 0.840528, 0.539106, 0.000000, -0.000000 
1440231700.895208, 0.892811, 0.446253, 0.000000, -0.000000 
1450236966.824645, 0.934667, 0.348595, -0.000000, -0.000000 
1460242232.754081, 0.965863, 0.247378, -0.000000, -0.000000 
1470247498.683518, 0.986310, 0.143692, -0.000000, 0.000000 
1480252764.612954, 0.995937, 0.038505, -0.000000, 0.000000 
1490258030.542391, 0.994624, -0.067253, 0.000000, 0.000000 
1500263296.471827, 0.982212, -0.172573, 0.000000, 0.000000 
1510268562.401264, 0.958588, -0.276297, 0.000000, -0.000000 
1520273828.330700, 0.923804, -0.377118, 0.000000, -0.000000 
1530279094.260137, 0.878169, -0.473660, -0.000000, -0.000000 
1540284360.189574, 0.822281, -0.564595, -0.000000, -0.000000 
1550289626.119010, 0.756980, -0.648766, -0.000000, 0.000000 
1560294892.048447, 0.683245, -0.725253, -0.000000, 0.000000 
1570300157.977883, 0.602070, -0.793369, -0.000000, 0.000000 
1580305423.907320, 0.514377, -0.852587, 0.000000, 0.000000 
1590310689.836756, 0.420994, -0.902421, 0.000000, 0.000000 
1600315955.766193, 0.322724, -0.942341, 0.000000, -0.000000 
1610321221.695629, 0.220455, -0.971746, 0.000000, -0.000000 
1620326487.625066, 0.115266, -0.990033, -0.000000, -0.000000 
1630331753.554502, 0.008465, -0.996723, -0.000000, -0.000000 
1640337019.483939, -0.098469, -0.991605, -0.000000, 0.000000 
1650342285.413375, -0.204025, -0.974806, -0.000000, 0.000000 
1660347551.342812, -0.306828, -0.946764, 0.000000, 0.000000 
1670352817.272249, -0.405745, -0.908101, 0.000000, 0.000000 
1680358083.201685, -0.499890, -0.859454, 0.000000, 0.000000 
1690363349.131122, -0.588506, -0.801353, 0.000000, -0.000000 
1700368615.060558, -0.670808, -0.734215, 0.000000, -0.000000 
1710373880.989995, -0.745855, -0.658457, -0.000000, -0.000000 
1720379146.919431, -0.812547, -0.574672, -0.000000, -0.000000 
1730384412.848868, -0.869749, -0.483773, -0.000000, 0.000000 
1740389678.778304, -0.916489, -0.387014, -0.000000, 0.000000 
1750394944.707741, -0.952141, -0.285871, 0.000000, 0.000000 
1760400210.637177, -0.976478, -0.181833, 0.000000, 0.000000 
1770405476.566614, -0.989573, -0.076204, 0.000000, -0.000000 
1780410742.496051, -0.991607, 0.029974, 0.000000, -0.000000 
1790416008.425487, -0.982670, 0.135844, 0.000000, -0.000000 
1800421274.354924, -0.962689, 0.240541, -0.000000, -0.000000 
1810426540.284360, -0.931506, 0.343003, -0.000000, -0.000000 
1820431806.213797, -0.889084, 0.441891, -0.000000, 0.000000 
1830437072.143233, -0.835714, 0.535677, -0.000000, 0.000000 
1840442338.072670, -0.772118, 0.622858, 0.000000, 0.000000 
1850447604.002106, -0.699381, 0.702192, 0.000000, 0.000000 
1860452869.931543, -0.618745, 0.772827, 0.000000, -0.000000 
1870458135.860980, -0.531371, 0.834264, 0.000000, -0.000000 
1880463401.790416, -0.438202, 0.886169, -0.000000, -0.000000 
1890468667.719852, -0.339986, 0.928158, -0.000000, -0.000000 
1900473933.649289, -0.237457, 0.959658, -0.000000, 0.000000 
1910479199.578726, -0.131551, 0.979947, -0.000000, 0.000000 
1920484465.508162, -0.023542, 0.988330, -0.000000, 0.000000 
1930489731.437599, 0.084980, 0.984384, 0.000000, 0.000000 
1940494997.367035, 0.192298, 0.968115, 0.000000, 0.000000 
1950500263.296472, 0.296816, 0.939963, 0.000000, -0.000000 
1960505529.225908, 0.397237, 0.900639, 0.000000, -0.000000 
1970510795.155345, 0.492595, 0.850896, -0.000000, -0.000000 
1980516061.084782, 0.582121, 0.791347, -0.000000, -0.000000 
1990521327.014218, 0.665031, 0.722432, -0.000000, 0.000000 
2000526592.943655, 0.740356, 0.644546, -0.000000, 0.000000 
2010531858.873091, 0.806913, 0.558255, 0.000000, 0.000000 
2020537124.802528, 0.863432, 0.464472, 0.000000, 0.000000 
2030542390.731964, 0.908786, 0.364514, 0.000000, -0.000000 
2040547656.661401, 0.942197, 0.259980, 0.000000, -0.000000 
2050552922.590837, 0.963325, 0.152537, 0.000000, -0.000000 
2060558188.520274, 0.972186, 0.043697, -0.000000, -0.000000 
2070563454.449710, 0.968957, -0.065288, -0.000000, -0.000000 
2080568720.379147, 0.953777, -0.173375, -0.000000, 0.000000 
2090573986.308583, 0.926630, -0.279552, -0.000000, 0.000000 
2100579252.238020, 0.887393, -0.382635, 0.000000, 0.000000 
2110584518.167457, 0.836026, -0.481145, 0.000000, 0.000000 
2120589784.096893, 0.772793, -0.573349, 0.000000, -0.000000 
2130595050.026330, 0.698426, -0.657441, 0.000000, -0.000000 
2140600315.955766, 0.614123, -0.731801, -0.000000, -0.000000 
2150605581.885203, 0.521393, -0.795186, -0.000000, -0.000000 
2160610847.814639, 0.421802, -0.846787, -0.000000, -0.000000 
2170616113.744076, 0.316759, -0.886093, -0.000000, 0.000000 
2180621379.673512, 0.207443, -0.912653, -0.000000, 0.000000 
2190626645.602949, 0.094935, -0.925839, 0.000000, 0.000000 
2200631911.532386, -0.019514, -0.924763, 0.000000, 0.000000 
2210637177.461822, -0.134193, -0.908406, 0.000000, -0.000000 
2220642443.391258, -0.246780, -0.875939, 0.000000, -0.000000 
2230647709.320695, -0.354434, -0.827086, -0.000000, -0.000000 
2240652975.250132, -0.454108, -0.762369, -0.000000, -0.000000 
2250658241.179568, -0.542942, -0.683090, -0.000000, 0.000000 
2260663507.109005, -0.618540, -0.591060, -0.000000, 0.000000 
2270668773.038442, -0.678938, -0.488224, -0.000000, 0.000000 
2280674038.967878, -0.722272, -0.376443, 0.000000, 0.000000 
2290679304.897314, -0.746298, -0.257667, 0.000000, 0.000000 
2300684570.826751, -0.748121, -0.134575, 0.000000, -0.000000 
2310689836.756187, -0.724476, -0.011476, 0.000000, -0.000000 
2320695102.685624, -0.672743, 0.104961, -0.000000, -0.000000 
2330700368.615061, -0.592533, 0.205657, -0.000000, -0.000000 
2340705634.544497, -0.487359, 0.280135, -0.000000, 0.000000 
2350710900.473934, -0.365686, 0.318588, -0.000000, 0.000000 
2360716166.403370, -0.240721, 0.314549, 0.000000, 0.000000 
2370721432.332807, -0.128671, 0.267328, 0.000000, 0.000000 
2380726698.262243, -0.045762, 0.183336, 0.000000, -0.000000 
2390731964.191680, -0.004795, 0.075712, 0.000000, -0.000000 
2400737230.121117, -0.012221, -0.037785, 0.000000, -0.000000 
2410742496.050553, -0.066582, -0.138112, -0.000000, -0.000000 
2420747761.979990, -0.158768, -0.208654, -0.000000, -0.000000 
2430753027.909426, -0.274022, -0.238333, -0.000000, 0.000000 
2440758293.838862, -0.395165, -0.223313, -0.000000, 0.000000 
2450763559.768299, -0.506112, -0.166900, 0.000000, 0.000000 
2460768825.697736, -0.594721, -0.077774, 0.000000, 0.000000 
2470774091.627172, -0.654212, 0.032761, 0.000000, -0.000000 
2480779357.556609, -0.682988, 0.153565, 0.000000, -0.000000 
2490784623.486045, -0.683200, 0.275655, -0.000000, -0.000000 
2500789889.415482, -0.658820, 0.392979, -0.000000, -0.000000 
2510795155.344918, -0.613952, 0.502070, -0.000000, -0.000000 
2520800421.274355, -0.551890, 0.601051, -0.000000, 0.000000 
2530805687.203792, -0.475006, 0.688573, -0.000000, 0.000000 
2540810953.133228, -0.385224, 0.763152, 0.000000, 0.000000 
2550816219.062665, -0.284633, 0.823084, 0.000000, 0.000000 
2560821484.992101, -0.175876, 0.866793, 0.000000, -0.000000 
2570826750.921537, -0.062123, 0.893329, 0.000000, -0.000000 
2580832016.850974, 0.053321, 0.902677, -0.000000, -0.000000 
2590837282.780411, 0.167512, 0.895731, -0.000000, -0.000000 
2600842548.709847, 0.278236, 0.873951, -0.000000, 0.000000 
2610847814.639284, 0.384075, 0.838874, -0.000000, 0.000000 
2620853080.568720, 0.484161, 0.791730, 0.000000, 0.000000 
2630858346.498157, 0.577781, 0.733308, 0.000000, 0.000000 
2640863612.427593, 0.664011, 0.664110, 0.000000, 0.000000 
2650868878.357030, 0.741574, 0.584686, 0.000000, -0.000000 
2660874144.286467, 0.808957, 0.495969, 0.000000, -0.000000 
2670879410.215903, 0.864717, 0.399428, -0.000000, -0.000000 
2680884676.145340, 0.907818, 0.296990, -0.000000, -0.000000 
2690889942.074776, 0.937829, 0.190759, -0.000000, 0.000000 
2700895208.004213, 0.954908, 0.082676, -0.000000, 0.000000 
2710900473.933649, 0.959570, -0.025729, 0.000000, 0.000000 
2720905739.863086, 0.952367, -0.133363, 0.000000, 0.000000 
2730911005.792522, 0.933642, -0.239408, 0.000000, -0.000000 
2740916271.721959, 0.903456, -0.343024, 0.000000, -0.000000 
2750921537.651396, 0.861745, -0.443104, -0.000000, -0.000000 
2760926803.580832, 0.808584, -0.538195, -0.000000, -0.000000 
2770932069.510269, 0.744464, -0.626627, -0.000000, -0.000000 
2780937335.439705, 0.670398, -0.706790, -0.000000, 0.000000 
2790942601.369142, 0.587830, -0.777428, -0.000000, 0.000000 
2800947867.298578, 0.498375, -0.837804, 0.000000, 0.000000 
2810953133.228015, 0.403514, -0.887652, 0.000000, 0.000000 
2820958399.157452, 0.304402, -0.926960, 0.000000, -0.000000 
2830963665.086888, 0.201876, -0.955676, 0.000000, -0.000000 
2840968931.016325, 0.096648, -0.973516, -0.000000, -0.000000 
2850974196.945761, -0.010415, -0.979956, -0.000000, -0.000000 
2860979462.875197, -0.118093, -0.974424, -0.000000, 0.000000 
2870984728.804634, -0.224790, -0.956579, -0.000000, 0.000000 
2880989994.734071, -0.328714, -0.926545, -0.000000, 0.000000 
2890995260.663507, -0.428165, -0.884968, 0.000000, 0.000000 
2901000526.592944, -0.521801, -0.832870, 0.000000, 0.000000 
2911005792.522380, -0.608730, -0.771371, 0.000000, -0.000000 
2921011058.451817, -0.688406, -0.701432, 0.000000, -0.000000 
2931016324.381253, -0.760386, -0.623739, -0.000000, -0.000000 
2941021590.310690, -0.824082, -0.538786, -0.000000, -0.000000 
2951026856.240127, -0.878649, -0.447101, -0.000000, 0.000000 
2961032122.169563, -0.923055, -0.349495, -0.000000, 0.000000 
2971037388.099000, -0.956313, -0.247188, 0.000000, 0.000000 
2981042654.028436, -0.977743, -0.141757, 0.000000, 0.000000 
2991047919.957872, -0.987134, -0.034911, 0.000000, 0.000000 
3001053185.887309, -0.984721, 0.071770, 0.000000, -0.000000 
3011058451.816746, -0.971002, 0.177015, 0.000000, -0.000000 
3021063717.746182, -0.946501, 0.279885, -0.000000, -0.000000 
3031068983.675619, -0.911580, 0.379620, -0.000000, -0.000000 
3041074249.605055, -0.866422, 0.475422, -0.000000, 0.000000 
3051079515.534492, -0.811154, 0.566289, -0.000000, 0.000000 
3061084781.463928, -0.746062, 0.650983, 0.000000, 0.000000 
3071090047.393365, -0.671770, 0.728149, 0.000000, 0.000000 
3081095313.322802, -0.589290, 0.796535, 0.000000, -0.000000 
3091100579.252238, -0.499929, 0.855186, 0.000000, -0.000000 
3101105845.181675, -0.405087, 0.903530, -0.000000, -0.000000 
3111111111.111111, -0.306068, 0.941325, -0.000000, -0.000000 
3121116377.040547, -0.203968, 0.968498, -0.000000, -0.000000 
3131121642.969984, -0.099700, 0.984973, -0.000000, 0.000000 
3141126908.899421, 0.005874, 0.990569, -0.000000, 0.000000 
3151132174.828857, 0.111790, 0.985008, 0.000000, 0.000000 
3161137440.758294, 0.216871, 0.968039, 0.000000, 0.000000 
3171142706.687730, 0.319736, 0.939602, 0.000000, -0.000000 
3181147972.617167, 0.418908, 0.899945, 0.000000, -0.000000 
3191153238.546604, 0.512975, 0.849661, -0.000000, -0.000000 
3201158504.476040, 0.600739, 0.789605, -0.000000, -0.000000 
3211163770.405477, 0.681282, 0.720755, -0.000000, 0.000000 
3221169036.334913, 0.753929, 0.644064, -0.000000, 0.000000 
3231174302.264350, 0.818140, 0.560379, -0.000000, 0.000000 
3241179568.193786, 0.873380, 0.470451, 0.000000, 0.000000 
3251184834.123223, 0.919035, 0.375024, 0.000000, 0.000000 
3261190100.052660, 0.954414, 0.274968, 0.000000, -0.000000 
3271195365.982096, 0.978842, 0.171370, 0.000000, -0.000000 
3281200631.911532, 0.991796, 0.065550, -0.000000, -0.000000 
3291205897.840969, 0.993033, -0.041022, -0.000000, -0.000000 
3301211163.770406, 0.982639, -0.146861, -0.000000, 0.000000 
3311216429.699842, 0.960989, -0.250621, -0.000000, 0.000000 
3321221695.629279, 0.928616, -0.351177, 0.000000, 0.000000 
3331226961.558715, 0.886072, -0.447618, 0.000000, 0.000000 
3341232227.488152, 0.833828, -0.539143, 0.000000, 0.000000 
3351237493.417588, 0.772270, -0.624927, 0.000000, -0.000000 
3361242759.347025, 0.701800, -0.704020, 0.000000, -0.000000 
3371248025.276461, 0.622973, -0.775340, -0.000000, -0.000000 
3381253291.205898, 0.536624, -0.837773, -0.000000, -0.000000 
3391258557.135334, 0.443892, -0.890339, -0.000000, 0.000000 
3401263823.064771, 0.346131, -0.932340, -0.000000, 0.000000 
3411269088.994207, 0.244750, -0.963426, 0.000000, 0.000000 
3421274354.923644, 0.141037, -0.983539, 0.000000, 0.000000 
3431279620.853081, 0.036077, -0.992765, 0.000000, -0.000000 
3441284886.782517, -0.069221, -0.991170, 0.000000, -0.000000 
3451290152.711954, -0.173988, -0.978713, -0.000000, -0.000000 
3461295418.641390, -0.277235, -0.955266, -0.000000, -0.000000 
3471300684.570827, -0.377762, -0.920764, -0.000000, -0.000000 
3481305950.500263, -0.474179, -0.875367, -0.000000, 0.000000 
3491311216.429700, -0.565053, -0.819589, -0.000000, 0.000000 
3501316482.359137, -0.649100, -0.754287, 0.000000, 0.000000 
3511321748.288573, -0.725328, -0.680541, 0.000000, 0.000000 
3521327014.218009, -0.793074, -0.599461, 0.000000, -0.000000 
3531332280.147446, -0.851899, -0.512035, 0.000000, -0.000000 
3541337546.076883, -0.901424, -0.419081, -0.000000, -0.000000 
3551342812.006319, -0.941183, -0.321337, -0.000000, -0.000000 
3561348077.935756, -0.970583, -0.219611, -0.000000, 0.000000 
3571353343.865192, -0.988985, -0.114935, -0.000000, 0.000000 
3581358609.794629, -0.995874, -0.008608, 0.000000, 0.000000 
3591363875.724065, -0.991023, 0.097877, 0.000000, 0.000000 
3601369141.653502, -0.974569, 0.203003, 0.000000, 0.000000 
3611374407.582939, -0.946962, 0.305405, 0.000000, -0.000000 
3621379673.512375, -0.908821, 0.403971, 0.000000, -0.000000 
3631384939.441812, -0.860771, 0.497819, -0.000000, -0.000000 
3641390205.371248, -0.803341, 0.586185, -0.000000, -0.000000 
3651395471.300684, -0.736975, 0.668272, -0.000000, 0.000000 
3661400737.230121, -0.662138, 0.743165, -0.000000, 0.000000 
3671406003.159558, -0.579462, 0.809838, 0.000000, 0.000000 
3681411269.088995, -0.489840, 0.867263, 0.000000, 0.000000 
3691416535.018431, -0.394434, 0.914562, 0.000000, -0.000000 
3701421800.947867, -0.294578, 0.951130, 0.000000, -0.000000 
3711427066.877304, -0.191638, 0.976661, 0.000000, -0.000000 
3721432332.806740, -0.086878, 0.991100, -0.000000, -0.000000 
3731437598.736177, 0.018590, 0.994515, -0.000000, -0.000000 
3741442864.665614, 0.123776, 0.986991, -0.000000, 0.000000 
3751448130.595050, 0.227716, 0.968573, -0.000000, 0.000000 
3761453396.524487, 0.329377, 0.939296, 0.000000, 0.000000 
3771458662.453923, 0.427601, 0.899269, 0.000000, 0.000000 
3781463928.383360, 0.521131, 0.848787, 0.000000, -0.000000 
3791469194.312796, 0.608697, 0.788394, 0.000000, -0.000000 
3801474460.242233, 0.689132, 0.718886, -0.000000, -0.000000 
3811479726.171669, 0.761466, 0.641250, -0.000000, -0.000000 
3821484992.101106, 0.824959, 0.556549, -0.000000, 0.000000 
3831490258.030542, 0.879072, 0.465834, -0.000000, 0.000000 
3841495523.959979, 0.923387, 0.370087, -0.000000, 0.000000 
3851500789.889416, 0.957520, 0.270233, 0.000000, 0.000000 
3861506055.818852, 0.981075, 0.167203, 0.000000, 0.000000 
3871511321.748289, 0.993648, 0.062018, 0.000000, -0.000000 
3881516587.677725, 0.994897, -0.044153, 0.000000, -0.000000 
3891521853.607162, 0.984638, -0.149998, -0.000000, -0.000000 
3901527119.536598, 0.962931, -0.254123, -0.000000, -0.000000 
3911532385.466035, 0.930102, -0.355161, -0.000000, 0.000000 
3921537651.395472, 0.886711, -0.451878, -0.000000, 0.000000 
3931542917.324908, 0.833452, -0.543234, 0.000000, 0.000000 
3941548183.254344, 0.771045, -0.628372, 0.000000, 0.000000 
3951553449.183781, 0.700167, -0.706542, 0.000000, 0.000000 
3961558715.113217, 0.621453, -0.777005, 0.000000, -0.000000 
3971563981.042654, 0.535567, -0.838959, 0.000000, -0.000000 
3981569246.972091, 0.443308, -0.891549, -0.000000, -0.000000 
3991574512.901527, 0.345692, -0.933944, -0.000000, -0.000000 
4001579778.830964, 0.243957, -0.965464, -0.000000, 0.000000 
4011585044.760400, 0.139490, -0.985690, -0.000000, 0.000000 
4021590310.689837, 0.033690, -0.994501, 0.000000, 0.000000 
4031595576.619273, -0.072157, -0.992025, 0.000000, 0.000000 
4041600842.548710, -0.176940, -0.978515, 0.000000, -0.000000 
4051606108.478147, -0.279692, -0.954231, 0.000000, -0.000000 
4061611374.407583, -0.379488, -0.919375, -0.000000, -0.000000 
4071616640.337019, -0.475325, -0.874123, -0.000000, -0.000000 
4081621906.266456, -0.566066, -0.818735, -0.000000, -0.000000 
