# stacked metamaterial geometry 
# f [Hz], L [0.001 m]
# Unitcell size lx, ly, lz = 20, 20, 149.8962 at center position x = 0 y = 0 z = 0
# Definition of material properties: 
#name =FR4,type =const,Epsilon =4.1,tand =0.015,f0 =10000000000,
#name =copper,type =const,Kappa =56000000,
#name =copperRings,Kappa =56000000,type =const,
## layer number 1:
# rect patch made of copper. lx, ly, lz = 20, 20, 0.5 at center position x = 0 y = 0 z = -0.25
# layer number 2:
# rect patch made of FR4. lx, ly, lz = 20, 20, 2 at center position x = 0 y = 0 z = -1.5
# layer number 3:
# circular rings made of copperRings at center position x = 0 y = 0 z = -2.55
# radius R1, R2=9.8, 5.1 ringwidths w1, w2=1.5, 0.5, background material FR4
# Re/Im parts of the scattering parameters S11 (refl.) and S21 (transm.) as a function of frequency 
# first column is frequency, second and third columns are Re/Im of S11 and S21, respectively.
# Parameters of Metamaterial are: 
1000000000.000000, -0.352267, -0.930320, -0.000000, 0.000000 
1010005265.929437, -0.398268, -0.912335, -0.000000, 0.000000 
1020010531.858873, -0.443849, -0.892264, -0.000000, 0.000000 
1030015797.788310, -0.488942, -0.869893, -0.000000, 0.000000 
1040021063.717746, -0.533374, -0.845021, 0.000000, 0.000000 
1050026329.647183, -0.576876, -0.817499, 0.000000, 0.000000 
1060031595.576619, -0.619112, -0.787263, 0.000000, 0.000000 
1070036861.506056, -0.659722, -0.754362, 0.000000, 0.000000 
1080042127.435492, -0.698358, -0.718948, 0.000000, 0.000000 
1090047393.364929, -0.734735, -0.681271, 0.000000, 0.000000 
1100052659.294365, -0.768649, -0.641641, 0.000000, 0.000000 
1110057925.223802, -0.800000, -0.600394, -0.000000, 0.000000 
1120063191.153239, -0.828787, -0.557849, -0.000000, 0.000000 
1130068457.082675, -0.855086, -0.514274, -0.000000, 0.000000 
1140073723.012112, -0.879028, -0.469868, -0.000000, 0.000000 
1150078988.941548, -0.900757, -0.424742, -0.000000, 0.000000 
1160084254.870985, -0.920406, -0.378935, -0.000000, 0.000000 
1170089520.800421, -0.938062, -0.332418, -0.000000, 0.000000 
1180094786.729858, -0.953746, -0.285130, -0.000000, 0.000000 
1190100052.659294, -0.967409, -0.236998, 0.000000, 0.000000 
1200105318.588731, -0.978933, -0.187976, 0.000000, 0.000000 
1210110584.518167, -0.988144, -0.138069, 0.000000, 0.000000 
1220115850.447604, -0.994842, -0.087349, 0.000000, 0.000000 
1230121116.377041, -0.998829, -0.035965, 0.000000, 0.000000 
1240126382.306477, -0.999935, 0.015863, 0.000000, 0.000000 
1250131648.235914, -0.998050, 0.067861, 0.000000, 0.000000 
1260136914.165350, -0.993137, 0.119728, 0.000000, 0.000000 
1270142180.094787, -0.985231, 0.171164, 0.000000, 0.000000 
1280147446.024223, -0.974441, 0.221899, 0.000000, 0.000000 
1290152711.953660, -0.960921, 0.271710, 0.000000, 0.000000 
1300157977.883096, -0.944856, 0.320437, 0.000000, 0.000000 
1310163243.812533, -0.926432, 0.367982, -0.000000, 0.000000 
1320168509.741970, -0.905813, 0.414301, -0.000000, 0.000000 
1330173775.671406, -0.883128, 0.459391, -0.000000, 0.000000 
1340179041.600842, -0.858458, 0.503266, 0.000000, 0.000000 
1350184307.530279, -0.831837, 0.545941, 0.000000, 0.000000 
1360189573.459716, -0.803258, 0.587408, 0.000000, 0.000000 
1370194839.389152, -0.772687, 0.627624, 0.000000, 0.000000 
1380200105.318589, -0.740081, 0.666502, 0.000000, 0.000000 
1390205371.248025, -0.705405, 0.703910, 0.000000, 0.000000 
1400210637.177462, -0.668654, 0.739679, 0.000000, 0.000000 
1410215903.106898, -0.629865, 0.773614, 0.000000, 0.000000 
1420221169.036335, -0.589121, 0.805513, 0.000000, 0.000000 
1430226434.965771, -0.546556, 0.835186, 0.000000, 0.000000 
1440231700.895208, -0.502343, 0.862470, 0.000000, 0.000000 
1450236966.824645, -0.456683, 0.887237, 0.000000, 0.000000 
1460242232.754081, -0.409790, 0.909407, 0.000000, 0.000000 
1470247498.683518, -0.361878, 0.928937, 0.000000, 0.000000 
1480252764.612954, -0.313145, 0.945826, 0.000000, 0.000000 
1490258030.542391, -0.263765, 0.960094, 0.000000, 0.000000 
1500263296.471827, -0.213888, 0.971781, 0.000000, 0.000000 
1510268562.401264, -0.163631, 0.980928, 0.000000, 0.000000 
1520273828.330700, -0.113094, 0.987574, 0.000000, 0.000000 
1530279094.260137, -0.062354, 0.991742, 0.000000, 0.000000 
1540284360.189573, -0.011483, 0.993440, 0.000000, 0.000000 
1550289626.119010, 0.039449, 0.992661, 0.000000, 0.000000 
1560294892.048447, 0.090365, 0.989381, 0.000000, 0.000000 
1570300157.977883, 0.141176, 0.983565, 0.000000, 0.000000 
1580305423.907320, 0.191775, 0.975175, 0.000000, 0.000000 
1590310689.836756, 0.242037, 0.964174, 0.000000, 0.000000 
1600315955.766193, 0.291820, 0.950534, 0.000000, -0.000000 
1610321221.695629, 0.340968, 0.934237, 0.000000, -0.000000 
1620326487.625066, 0.389311, 0.915285, 0.000000, -0.000000 
1630331753.554502, 0.436675, 0.893698, 0.000000, -0.000000 
1640337019.483939, 0.482879, 0.869517, 0.000000, -0.000000 
1650342285.413375, 0.527744, 0.842804, 0.000000, -0.000000 
1660347551.342812, 0.571096, 0.813645, 0.000000, 0.000000 
1670352817.272249, 0.612771, 0.782146, 0.000000, 0.000000 
1680358083.201685, 0.652617, 0.748435, 0.000000, 0.000000 
1690363349.131122, 0.690503, 0.712655, 0.000000, 0.000000 
1700368615.060558, 0.726321, 0.674961, 0.000000, 0.000000 
1710373880.989995, 0.759990, 0.635517, 0.000000, 0.000000 
1720379146.919431, 0.791456, 0.594483, 0.000000, 0.000000 
1730384412.848868, 0.820692, 0.552009, 0.000000, 0.000000 
1740389678.778304, 0.847690, 0.508224, 0.000000, 0.000000 
1750394944.707741, 0.872457, 0.463233, 0.000000, -0.000000 
1760400210.637177, 0.894999, 0.417112, 0.000000, -0.000000 
1770405476.566614, 0.915310, 0.369909, 0.000000, -0.000000 
1780410742.496051, 0.933360, 0.321653, 0.000000, -0.000000 
1790416008.425487, 0.949087, 0.272363, 0.000000, -0.000000 
1800421274.354924, 0.962392, 0.222066, 0.000000, -0.000000 
1810426540.284360, 0.973142, 0.170809, 0.000000, -0.000000 
1820431806.213797, 0.981177, 0.118678, 0.000000, -0.000000 
1830437072.143233, 0.986323, 0.065810, 0.000000, -0.000000 
1840442338.072670, 0.988415, 0.012395, 0.000000, -0.000000 
1850447604.002106, 0.987314, -0.041317, 0.000000, -0.000000 
1860452869.931543, 0.982929, -0.095036, 0.000000, -0.000000 
1870458135.860980, 0.975232, -0.148438, 0.000000, -0.000000 
1880463401.790416, 0.964272, -0.201194, 0.000000, -0.000000 
1890468667.719852, 0.950170, -0.252999, 0.000000, -0.000000 
1900473933.649289, 0.933115, -0.303590, 0.000000, -0.000000 
1910479199.578726, 0.913338, -0.352777, 0.000000, -0.000000 
1920484465.508162, 0.891088, -0.400453, 0.000000, -0.000000 
1930489731.437599, 0.866595, -0.446591, 0.000000, -0.000000 
1940494997.367035, 0.840040, -0.491239, 0.000000, -0.000000 
1950500263.296472, 0.811529, -0.534487, 0.000000, -0.000000 
1960505529.225908, 0.781077, -0.576441, 0.000000, -0.000000 
1970510795.155345, 0.748609, -0.617175, 0.000000, -0.000000 
1980516061.084781, 0.713974, -0.656702, 0.000000, -0.000000 
1990521327.014218, 0.676975, -0.694941, 0.000000, -0.000000 
2000526592.943655, 0.637407, -0.731698, 0.000000, -0.000000 
2010531858.873091, 0.595101, -0.766665, 0.000000, -0.000000 
2020537124.802528, 0.549970, -0.799436, 0.000000, -0.000000 
2030542390.731964, 0.502045, -0.829540, 0.000000, -0.000000 
2040547656.661401, 0.451496, -0.856480, 0.000000, -0.000000 
2050552922.590837, 0.398643, -0.879792, 0.000000, -0.000000 
2060558188.520274, 0.343939, -0.899094, 0.000000, -0.000000 
2070563454.449710, 0.287931, -0.914136, 0.000000, -0.000000 
2080568720.379147, 0.231212, -0.924827, 0.000000, -0.000000 
2090573986.308583, 0.174357, -0.931245, 0.000000, -0.000000 
2100579252.238020, 0.117854, -0.933618, 0.000000, -0.000000 
2110584518.167457, 0.062056, -0.932281, 0.000000, -0.000000 
2120589784.096893, 0.007144, -0.927611, 0.000000, -0.000000 
2130595050.026330, -0.046881, -0.919953, 0.000000, -0.000000 
2140600315.955766, -0.100175, -0.909540, 0.000000, -0.000000 
2150605581.885202, -0.152993, -0.896435, -0.000000, -0.000000 
2160610847.814639, -0.205618, -0.880478, -0.000000, -0.000000 
2170616113.744076, -0.258261, -0.861281, -0.000000, -0.000000 
2180621379.673512, -0.310965, -0.838251, -0.000000, -0.000000 
2190626645.602949, -0.363516, -0.810644, -0.000000, -0.000000 
2200631911.532385, -0.415369, -0.777665, -0.000000, -0.000000 
2210637177.461822, -0.465617, -0.738585, -0.000000, -0.000000 
2220642443.391258, -0.512993, -0.692877, -0.000000, -0.000000 
2230647709.320695, -0.555927, -0.640352, -0.000000, -0.000000 
2240652975.250132, -0.592648, -0.581280, -0.000000, -0.000000 
2250658241.179568, -0.621326, -0.516467, -0.000000, -0.000000 
2260663507.109005, -0.640252, -0.447292, -0.000000, -0.000000 
2270668773.038441, -0.648018, -0.375684, -0.000000, -0.000000 
2280674038.967878, -0.643691, -0.304031, -0.000000, -0.000000 
2290679304.897314, -0.626956, -0.235042, -0.000000, -0.000000 
2300684570.826751, -0.598212, -0.171565, -0.000000, -0.000000 
2310689836.756187, -0.558607, -0.116382, -0.000000, -0.000000 
2320695102.685624, -0.510014, -0.071995, -0.000000, -0.000000 
2330700368.615061, -0.454946, -0.040435, -0.000000, -0.000000 
2340705634.544497, -0.396419, -0.023094, -0.000000, -0.000000 
2350710900.473934, -0.337777, -0.020600, -0.000000, -0.000000 
2360716166.403370, -0.282483, -0.032743, -0.000000, -0.000000 
2370721432.332807, -0.233898, -0.058457, -0.000000, 0.000000 
2380726698.262243, -0.195058, -0.095864, -0.000000, 0.000000 
2390731964.191680, -0.168465, -0.142375, -0.000000, 0.000000 
2400737230.121117, -0.155916, -0.194851, -0.000000, 0.000000 
2410742496.050553, -0.158368, -0.249807, -0.000000, 0.000000 
2420747761.979990, -0.175879, -0.303648, -0.000000, 0.000000 
2430753027.909426, -0.207615, -0.352918, -0.000000, 0.000000 
2440758293.838862, -0.251926, -0.394539, -0.000000, 0.000000 
2450763559.768299, -0.306497, -0.426005, -0.000000, 0.000000 
2460768825.697736, -0.368544, -0.445535, -0.000000, 0.000000 
2470774091.627172, -0.435038, -0.452142, -0.000000, 0.000000 
2480779357.556609, -0.502943, -0.445638, -0.000000, 0.000000 
2490784623.486045, -0.569422, -0.426575, -0.000000, 0.000000 
2500789889.415482, -0.632016, -0.396122, -0.000000, 0.000000 
2510795155.344918, -0.688772, -0.355909, -0.000000, 0.000000 
2520800421.274355, -0.738309, -0.307851, -0.000000, 0.000000 
2530805687.203792, -0.779832, -0.253972, -0.000000, 0.000000 
2540810953.133228, -0.813101, -0.196239, -0.000000, 0.000000 
2550816219.062665, -0.838350, -0.136424, -0.000000, 0.000000 
2560821484.992101, -0.856184, -0.076002, -0.000000, 0.000000 
2570826750.921537, -0.867449, -0.016092, 0.000000, 0.000000 
2580832016.850974, -0.873109, 0.042569, 0.000000, 0.000000 
2590837282.780411, -0.874120, 0.099607, 0.000000, 0.000000 
2600842548.709847, -0.871327, 0.154951, 0.000000, 0.000000 
2610847814.639284, -0.865390, 0.208764, 0.000000, 0.000000 
2620853080.568720, -0.856740, 0.261343, 0.000000, 0.000000 
2630858346.498157, -0.845571, 0.313027, 0.000000, 0.000000 
2640863612.427593, -0.831864, 0.364109, 0.000000, 0.000000 
2650868878.357030, -0.815434, 0.414771, 0.000000, 0.000000 
2660874144.286467, -0.795998, 0.465035, 0.000000, 0.000000 
2670879410.215903, -0.773244, 0.514751, -0.000000, 0.000000 
2680884676.145340, -0.746901, 0.563602, -0.000000, 0.000000 
2690889942.074776, -0.716800, 0.611140, -0.000000, 0.000000 
2700895208.004213, -0.682911, 0.656833, -0.000000, 0.000000 
2710900473.933649, -0.645368, 0.700120, -0.000000, 0.000000 
2720905739.863086, -0.604465, 0.740474, 0.000000, 0.000000 
2730911005.792522, -0.560636, 0.777457, 0.000000, 0.000000 
2740916271.721959, -0.514413, 0.810759, 0.000000, 0.000000 
2750921537.651396, -0.466381, 0.840222, 0.000000, 0.000000 
2760926803.580832, -0.417120, 0.865854, 0.000000, 0.000000 
2770932069.510268, -0.367147, 0.887803, 0.000000, 0.000000 
2780937335.439705, -0.316883, 0.906335, 0.000000, 0.000000 
2790942601.369142, -0.266611, 0.921784, 0.000000, -0.000000 
2800947867.298578, -0.216478, 0.934500, 0.000000, -0.000000 
2810953133.228015, -0.166493, 0.944799, 0.000000, -0.000000 
2820958399.157452, -0.116560, 0.952922, 0.000000, -0.000000 
2830963665.086888, -0.066516, 0.959000, -0.000000, -0.000000 
2840968931.016324, -0.016173, 0.963046, -0.000000, -0.000000 
2850974196.945761, 0.034629, 0.964952, -0.000000, 0.000000 
2860979462.875197, 0.085984, 0.964514, -0.000000, 0.000000 
2870984728.804634, 0.137887, 0.961463, -0.000000, 0.000000 
2880989994.734071, 0.190218, 0.955508, -0.000000, 0.000000 
2890995260.663507, 0.242740, 0.946379, -0.000000, 0.000000 
2901000526.592944, 0.295113, 0.933868, 0.000000, 0.000000 
2911005792.522380, 0.346925, 0.917866, 0.000000, 0.000000 
2921011058.451817, 0.397727, 0.898378, 0.000000, 0.000000 
2931016324.381253, 0.447082, 0.875534, 0.000000, 0.000000 
2941021590.310690, 0.494600, 0.849574, 0.000000, 0.000000 
2951026856.240127, 0.539977, 0.820825, 0.000000, -0.000000 
2961032122.169563, 0.583018, 0.789663, 0.000000, -0.000000 
2971037388.099000, 0.623645, 0.756474, 0.000000, -0.000000 
2981042654.028436, 0.661886, 0.721611, 0.000000, -0.000000 
2991047919.957872, 0.697859, 0.685362, -0.000000, -0.000000 
3001053185.887309, 0.731733, 0.647922, -0.000000, -0.000000 
3011058451.816746, 0.763696, 0.609386, -0.000000, -0.000000 
3021063717.746182, 0.793911, 0.569753, -0.000000, -0.000000 
3031068983.675619, 0.822488, 0.528947, -0.000000, 0.000000 
3041074249.605055, 0.849452, 0.486838, -0.000000, 0.000000 
3051079515.534492, 0.874741, 0.443285, -0.000000, 0.000000 
3061084781.463928, 0.898199, 0.398170, -0.000000, 0.000000 
3071090047.393365, 0.919596, 0.351428, -0.000000, 0.000000 
3081095313.322802, 0.938650, 0.303080, -0.000000, 0.000000 
3091100579.252238, 0.955065, 0.253238, 0.000000, 0.000000 
3101105845.181674, 0.968564, 0.202112, 0.000000, 0.000000 
3111111111.111111, 0.978921, 0.149996, 0.000000, 0.000000 
3121116377.040547, 0.985992, 0.097243, 0.000000, 0.000000 
3131121642.969984, 0.989727, 0.044237, 0.000000, -0.000000 
3141126908.899421, 0.990175, -0.008647, 0.000000, -0.000000 
3151132174.828857, 0.987472, -0.061074, -0.000000, -0.000000 
3161137440.758294, 0.981822, -0.112771, -0.000000, -0.000000 
3171142706.687730, 0.973467, -0.163552, -0.000000, -0.000000 
3181147972.617167, 0.962655, -0.213316, -0.000000, -0.000000 
3191153238.546604, 0.949609, -0.262042, -0.000000, 0.000000 
3201158504.476040, 0.934501, -0.309773, -0.000000, 0.000000 
3211163770.405477, 0.917436, -0.356585, -0.000000, 0.000000 
3221169036.334913, 0.898444, -0.402567, -0.000000, 0.000000 
3231174302.264349, 0.877484, -0.447782, -0.000000, 0.000000 
3241179568.193786, 0.854463, -0.492248, -0.000000, 0.000000 
3251184834.123223, 0.829253, -0.535917, -0.000000, 0.000000 
3261190100.052660, 0.801724, -0.578672, 0.000000, 0.000000 
3271195365.982096, 0.771768, -0.620322, 0.000000, 0.000000 
3281200631.911532, 0.739327, -0.660621, 0.000000, 0.000000 
3291205897.840969, 0.704409, -0.699287, 0.000000, 0.000000 
3301211163.770405, 0.667100, -0.736030, 0.000000, 0.000000 
3311216429.699842, 0.627560, -0.770574, 0.000000, 0.000000 
3321221695.629279, 0.586014, -0.802686, 0.000000, -0.000000 
3331226961.558715, 0.542732, -0.832197, -0.000000, -0.000000 
3341232227.488152, 0.498010, -0.859005, -0.000000, -0.000000 
3351237493.417588, 0.452136, -0.883083, -0.000000, 0.000000 
3361242759.347025, 0.405376, -0.904468, -0.000000, 0.000000 
3371248025.276461, 0.357947, -0.923245, -0.000000, 0.000000 
3381253291.205898, 0.310013, -0.939528, -0.000000, 0.000000 
3391258557.135334, 0.261676, -0.953438, -0.000000, 0.000000 
3401263823.064771, 0.212986, -0.965079, -0.000000, 0.000000 
3411269088.994207, 0.163947, -0.974521, -0.000000, 0.000000 
3421274354.923644, 0.114542, -0.981788, 0.000000, 0.000000 
3431279620.853081, 0.064748, -0.986852, 0.000000, 0.000000 
3441284886.782517, 0.014560, -0.989638, 0.000000, 0.000000 
3451290152.711954, -0.035993, -0.990034, 0.000000, 0.000000 
3461295418.641390, -0.086834, -0.987904, 0.000000, 0.000000 
3471300684.570827, -0.137836, -0.983111, 0.000000, 0.000000 
3481305950.500263, -0.188816, -0.975535, 0.000000, 0.000000 
3491311216.429700, -0.239550, -0.965088, 0.000000, 0.000000 
3501316482.359137, -0.289784, -0.951733, 0.000000, 0.000000 
3511321748.288573, -0.339251, -0.935486, -0.000000, 0.000000 
3521327014.218009, -0.387692, -0.916420, -0.000000, 0.000000 
3531332280.147446, -0.434869, -0.894659, -0.000000, 0.000000 
3541337546.076882, -0.480582, -0.870363, -0.000000, 0.000000 
3551342812.006319, -0.524678, -0.843721, -0.000000, 0.000000 
3561348077.935756, -0.567052, -0.814927, -0.000000, 0.000000 
3571353343.865192, -0.607646, -0.784169, -0.000000, 0.000000 
3581358609.794629, -0.646442, -0.751612, 0.000000, 0.000000 
3591363875.724065, -0.683448, -0.717387, 0.000000, 0.000000 
3601369141.653502, -0.718685, -0.681591, 0.000000, 0.000000 
3611374407.582938, -0.752171, -0.644280, 0.000000, 0.000000 
3621379673.512375, -0.783908, -0.605482, 0.000000, 0.000000 
3631384939.441812, -0.813870, -0.565199, 0.000000, 0.000000 
3641390205.371248, -0.841998, -0.523426, 0.000000, 0.000000 
3651395471.300684, -0.868197, -0.480164, 0.000000, 0.000000 
3661400737.230121, -0.892340, -0.435431, 0.000000, 0.000000 
3671406003.159558, -0.914276, -0.389278, 0.000000, 0.000000 
3681411269.088994, -0.933845, -0.341793, 0.000000, 0.000000 
3691416535.018431, -0.950886, -0.293106, 0.000000, 0.000000 
3701421800.947867, -0.965254, -0.243388, 0.000000, 0.000000 
3711427066.877304, -0.976835, -0.192843, -0.000000, 0.000000 
3721432332.806740, -0.985549, -0.141702, 0.000000, 0.000000 
3731437598.736177, -0.991364, -0.090204, 0.000000, 0.000000 
3741442864.665614, -0.994290, -0.038589, 0.000000, 0.000000 
3751448130.595050, -0.994379, 0.012920, 0.000000, 0.000000 
3761453396.524487, -0.991720, 0.064127, 0.000000, 0.000000 
3771458662.453923, -0.986421, 0.114870, 0.000000, 0.000000 
3781463928.383359, -0.978602, 0.165026, 0.000000, 0.000000 
3791469194.312796, -0.968379, 0.214511, 0.000000, 0.000000 
3801474460.242233, -0.955851, 0.263272, 0.000000, 0.000000 
3811479726.171669, -0.941091, 0.311279, 0.000000, 0.000000 
3821484992.101106, -0.924142, 0.358514, 0.000000, 0.000000 
3831490258.030542, -0.905013, 0.404951, 0.000000, -0.000000 
3841495523.959979, -0.883686, 0.450553, 0.000000, -0.000000 
3851500789.889415, -0.860122, 0.495251, 0.000000, -0.000000 
3861506055.818852, -0.834278, 0.538945, 0.000000, -0.000000 
3871511321.748289, -0.806115, 0.581497, 0.000000, 0.000000 
3881516587.677725, -0.775614, 0.622737, 0.000000, 0.000000 
3891521853.607162, -0.742789, 0.662468, 0.000000, 0.000000 
3901527119.536598, -0.707697, 0.700478, 0.000000, 0.000000 
3911532385.466035, -0.670438, 0.736556, 0.000000, 0.000000 
3921537651.395471, -0.631160, 0.770506, 0.000000, 0.000000 
3931542917.324908, -0.590046, 0.802160, 0.000000, 0.000000 
3941548183.254344, -0.547309, 0.831390, 0.000000, 0.000000 
3951553449.183781, -0.503176, 0.858115, 0.000000, 0.000000 
3961558715.113217, -0.457873, 0.882302, 0.000000, 0.000000 
3971563981.042654, -0.411606, 0.903960, 0.000000, 0.000000 
3981569246.972091, -0.364555, 0.923134, 0.000000, -0.000000 
3991574512.901527, -0.316858, 0.939889, 0.000000, -0.000000 
4001579778.830964, -0.268616, 0.954295, 0.000000, -0.000000 
4011585044.760400, -0.219889, 0.966411, 0.000000, -0.000000 
4021590310.689837, -0.170706, 0.976271, 0.000000, -0.000000 
4031595576.619273, -0.121083, 0.983878, 0.000000, -0.000000 
4041600842.548710, -0.071030, 0.989193, 0.000000, -0.000000 
4051606108.478147, -0.020575, 0.992145, 0.000000, -0.000000 
4061611374.407583, 0.030227, 0.992631, 0.000000, 0.000000 
4071616640.337019, 0.081281, 0.990536, 0.000000, 0.000000 
4081621906.266456, 0.132448, 0.985740, 0.000000, 0.000000 
4091627172.195893, 0.183542, 0.978145, 0.000000, 0.000000 
4101632438.125329, 0.234342, 0.967679, 0.000000, 0.000000 
4111637704.054766, 0.284600, 0.954321, 0.000000, 0.000000 
4121642969.984202, 0.334057, 0.938098, 0.000000, 0.000000 
