# stacked metamaterial geometry 
# f [Hz], L [0.001 m]
# Unitcell size lx, ly, lz = 20, 20, 149.896 at center position x = 0 y = 0 z = 0
# Definition of material properties: 
#name = FR4,type = const,Epsilon = 4.1,tand = 0.04,f0 = 10000000000,
#name = copper,type = const,Kappa = 56000000,
#name = copperRings,EpsilonPlasmaFrequency = 250000000000000,EpsilonRelaxTime = 1.6e-13,Kappa = 56000000,type = const,
#name = air,type = const,Epsilon = 1,
## layer number 1:
# rect patch made of copper lx, ly, lz = 20, 20, 0.5 at center position x = 0 y = 0 z = -0.25
# layer number 2:
# rect patch made of FR4 lx, ly, lz = 20, 20, 2 at center position x = 0 y = 0 z = -1.5
# layer number 3:
# circular rings made of copperRings at center position x = 0 y = 0 z = -2.525
# radius R1, R2=9.8, 5.1 ringwidths w1, w2=1.5, 0.5, background material air
# Re/Im parts of the scattering parameters S11 (refl.) and S21 (transm.) as a function of frequency 
# first column is frequency, second and third columns are Re/Im of S11 and S21, respectively.
# Parameters of Metamaterial are: 
1000000000.000000, -0.355320, -0.931619, -0.000000, 0.000000 
1010005265.929437, -0.401813, -0.912139, -0.000000, 0.000000 
1020010531.858873, -0.447280, -0.890469, -0.000000, 0.000000 
1030015797.788310, -0.491657, -0.866634, -0.000000, 0.000000 
1040021063.717746, -0.534866, -0.840649, -0.000000, 0.000000 
1050026329.647183, -0.576811, -0.812530, 0.000000, 0.000000 
1060031595.576619, -0.617379, -0.782299, 0.000000, 0.000000 
1070036861.506056, -0.656441, -0.749989, 0.000000, 0.000000 
1080042127.435492, -0.693861, -0.715656, 0.000000, 0.000000 
1090047393.364929, -0.729499, -0.679378, 0.000000, 0.000000 
1100052659.294365, -0.763222, -0.641255, 0.000000, -0.000000 
1110057925.223802, -0.794909, -0.601409, 0.000000, -0.000000 
1120063191.153239, -0.824459, -0.559976, 0.000000, -0.000000 
1130068457.082675, -0.851790, -0.517100, 0.000000, -0.000000 
1140073723.012112, -0.876845, -0.472928, 0.000000, -0.000000 
1150078988.941548, -0.899586, -0.427600, 0.000000, -0.000000 
1160084254.870985, -0.919987, -0.381247, -0.000000, -0.000000 
1170089520.800421, -0.938036, -0.333985, -0.000000, -0.000000 
1180094786.729858, -0.953721, -0.285918, -0.000000, -0.000000 
1190100052.659294, -0.967025, -0.237136, -0.000000, -0.000000 
1200105318.588731, -0.977925, -0.187724, -0.000000, -0.000000 
1210110584.518167, -0.986386, -0.137764, -0.000000, 0.000000 
1220115850.447604, -0.992362, -0.087344, -0.000000, 0.000000 
1230121116.377041, -0.995797, -0.036562, -0.000000, 0.000000 
1240126382.306477, -0.996631, 0.014467, -0.000000, 0.000000 
1250131648.235914, -0.994804, 0.065608, -0.000000, 0.000000 
1260136914.165350, -0.990266, 0.116704, 0.000000, 0.000000 
1270142180.094787, -0.982982, 0.167579, 0.000000, 0.000000 
1280147446.024223, -0.972942, 0.218044, 0.000000, 0.000000 
1290152711.953660, -0.960165, 0.267899, 0.000000, 0.000000 
1300157977.883096, -0.944698, 0.316948, 0.000000, 0.000000 
1310163243.812533, -0.926621, 0.365001, 0.000000, -0.000000 
1320168509.741970, -0.906040, 0.411889, 0.000000, -0.000000 
1330173775.671406, -0.883081, 0.457466, 0.000000, -0.000000 
1340179041.600842, -0.857879, 0.501618, 0.000000, -0.000000 
1350184307.530279, -0.830574, 0.544258, 0.000000, -0.000000 
1360189573.459716, -0.801296, 0.585327, 0.000000, -0.000000 
1370194839.389152, -0.770161, 0.624791, -0.000000, -0.000000 
1380200105.318589, -0.737263, 0.662627, -0.000000, -0.000000 
1390205371.248025, -0.702674, 0.698819, -0.000000, -0.000000 
1400210637.177462, -0.666441, 0.733346, -0.000000, -0.000000 
1410215903.106898, -0.628595, 0.766175, -0.000000, -0.000000 
1420221169.036335, -0.589153, 0.797253, -0.000000, 0.000000 
1430226434.965771, -0.548128, 0.826506, -0.000000, 0.000000 
1440231700.895208, -0.505540, 0.853832, -0.000000, 0.000000 
1450236966.824645, -0.461424, 0.879106, -0.000000, 0.000000 
1460242232.754081, -0.415839, 0.902189, -0.000000, 0.000000 
1470247498.683518, -0.368872, 0.922927, 0.000000, 0.000000 
1480252764.612954, -0.320649, 0.941169, 0.000000, 0.000000 
1490258030.542391, -0.271327, 0.956775, 0.000000, 0.000000 
1500263296.471827, -0.221097, 0.969624, 0.000000, 0.000000 
1510268562.401264, -0.170173, 0.979629, 0.000000, 0.000000 
1520273828.330700, -0.118786, 0.986736, 0.000000, -0.000000 
1530279094.260137, -0.067171, 0.990933, 0.000000, -0.000000 
1540284360.189574, -0.015555, 0.992249, 0.000000, -0.000000 
1550289626.119010, 0.035852, 0.990746, 0.000000, -0.000000 
1560294892.048447, 0.086865, 0.986514, 0.000000, -0.000000 
1570300157.977883, 0.137335, 0.979659, 0.000000, -0.000000 
1580305423.907320, 0.187141, 0.970295, -0.000000, -0.000000 
1590310689.836756, 0.236197, 0.958531, -0.000000, -0.000000 
1600315955.766193, 0.284443, 0.944463, -0.000000, -0.000000 
1610321221.695629, 0.331837, 0.928166, -0.000000, -0.000000 
1620326487.625066, 0.378347, 0.909692, -0.000000, -0.000000 
1630331753.554502, 0.423940, 0.889067, -0.000000, 0.000000 
1640337019.483939, 0.468574, 0.866295, -0.000000, 0.000000 
1650342285.413375, 0.512188, 0.841363, -0.000000, 0.000000 
1660347551.342812, 0.554697, 0.814249, -0.000000, 0.000000 
1670352817.272249, 0.595990, 0.784933, -0.000000, 0.000000 
1680358083.201685, 0.635928, 0.753403, 0.000000, 0.000000 
1690363349.131122, 0.674350, 0.719668, 0.000000, 0.000000 
1700368615.060558, 0.711079, 0.683764, 0.000000, 0.000000 
1710373880.989995, 0.745928, 0.645758, 0.000000, 0.000000 
1720379146.919431, 0.778712, 0.605753, 0.000000, 0.000000 
1730384412.848868, 0.809258, 0.563886, 0.000000, -0.000000 
1740389678.778304, 0.837413, 0.520324, 0.000000, -0.000000 
1750394944.707741, 0.863053, 0.475253, 0.000000, -0.000000 
1760400210.637177, 0.886084, 0.428878, 0.000000, -0.000000 
1770405476.566614, 0.906450, 0.381403, 0.000000, -0.000000 
1780410742.496051, 0.924122, 0.333030, -0.000000, -0.000000 
1790416008.425487, 0.939102, 0.283950, -0.000000, -0.000000 
1800421274.354924, 0.951410, 0.234331, -0.000000, -0.000000 
1810426540.284360, 0.961083, 0.184323, -0.000000, -0.000000 
1820431806.213797, 0.968159, 0.134052, -0.000000, -0.000000 
1830437072.143233, 0.972678, 0.083628, -0.000000, -0.000000 
1840442338.072670, 0.974669, 0.033139, -0.000000, 0.000000 
1850447604.002106, 0.974152, -0.017330, -0.000000, 0.000000 
1860452869.931543, 0.971130, -0.067702, -0.000000, 0.000000 
1870458135.860980, 0.965594, -0.117895, -0.000000, 0.000000 
1880463401.790416, 0.957527, -0.167818, -0.000000, 0.000000 
1890468667.719852, 0.946901, -0.217366, 0.000000, 0.000000 
1900473933.649289, 0.933692, -0.266418, 0.000000, 0.000000 
1910479199.578726, 0.917877, -0.314835, 0.000000, 0.000000 
1920484465.508162, 0.899450, -0.362463, 0.000000, 0.000000 
1930489731.437599, 0.878416, -0.409134, 0.000000, 0.000000 
1940494997.367035, 0.854803, -0.454673, 0.000000, -0.000000 
1950500263.296472, 0.828662, -0.498903, 0.000000, -0.000000 
1960505529.225908, 0.800065, -0.541649, 0.000000, -0.000000 
1970510795.155345, 0.769104, -0.582744, 0.000000, -0.000000 
1980516061.084782, 0.735889, -0.622035, 0.000000, -0.000000 
1990521327.014218, 0.700543, -0.659380, -0.000000, -0.000000 
2000526592.943655, 0.663198, -0.694658, -0.000000, -0.000000 
2010531858.873091, 0.623991, -0.727760, -0.000000, -0.000000 
2020537124.802528, 0.583057, -0.758590, -0.000000, -0.000000 
2030542390.731964, 0.540536, -0.787065, -0.000000, -0.000000 
2040547656.661401, 0.496561, -0.813109, -0.000000, -0.000000 
2050552922.590837, 0.451266, -0.836651, -0.000000, 0.000000 
2060558188.520274, 0.404785, -0.857624, -0.000000, 0.000000 
2070563454.449710, 0.357253, -0.875961, -0.000000, 0.000000 
2080568720.379147, 0.308809, -0.891599, -0.000000, 0.000000 
2090573986.308583, 0.259601, -0.904475, -0.000000, 0.000000 
2100579252.238020, 0.209782, -0.914532, 0.000000, 0.000000 
2110584518.167457, 0.159517, -0.921721, 0.000000, 0.000000 
2120589784.096893, 0.108978, -0.926000, 0.000000, 0.000000 
2130595050.026330, 0.058347, -0.927342, 0.000000, 0.000000 
2140600315.955766, 0.007810, -0.925732, 0.000000, 0.000000 
2150605581.885203, -0.042444, -0.921173, 0.000000, -0.000000 
2160610847.814639, -0.092225, -0.913680, 0.000000, -0.000000 
2170616113.744076, -0.141347, -0.903286, 0.000000, -0.000000 
2180621379.673512, -0.189629, -0.890035, 0.000000, -0.000000 
2190626645.602949, -0.236892, -0.873981, 0.000000, -0.000000 
2200631911.532386, -0.282965, -0.855186, -0.000000, -0.000000 
2210637177.461822, -0.327680, -0.833717, -0.000000, -0.000000 
2220642443.391258, -0.370869, -0.809646, -0.000000, -0.000000 
2230647709.320695, -0.412363, -0.783050, -0.000000, -0.000000 
2240652975.250132, -0.451986, -0.754012, -0.000000, -0.000000 
2250658241.179568, -0.489554, -0.722627, -0.000000, -0.000000 
2260663507.109005, -0.524875, -0.689002, -0.000000, 0.000000 
2270668773.038442, -0.557746, -0.653268, -0.000000, 0.000000 
2280674038.967878, -0.587957, -0.615584, -0.000000, 0.000000 
2290679304.897314, -0.615298, -0.576144, -0.000000, 0.000000 
2300684570.826751, -0.639561, -0.535179, -0.000000, 0.000000 
2310689836.756187, -0.660555, -0.492966, 0.000000, 0.000000 
2320695102.685624, -0.678115, -0.449828, 0.000000, 0.000000 
2330700368.615061, -0.692113, -0.406128, 0.000000, 0.000000 
2340705634.544497, -0.702473, -0.362268, 0.000000, 0.000000 
2350710900.473934, -0.709176, -0.318677, 0.000000, 0.000000 
2360716166.403370, -0.712278, -0.275801, 0.000000, -0.000000 
2370721432.332807, -0.711906, -0.234089, 0.000000, -0.000000 
2380726698.262243, -0.708267, -0.193975, 0.000000, -0.000000 
2390731964.191680, -0.701645, -0.155862, 0.000000, -0.000000 
2400737230.121117, -0.692392, -0.120110, 0.000000, -0.000000 
2410742496.050553, -0.680925, -0.087016, -0.000000, -0.000000 
2420747761.979990, -0.667709, -0.056805, -0.000000, -0.000000 
2430753027.909426, -0.653247, -0.029622, -0.000000, -0.000000 
2440758293.838862, -0.638062, -0.005521, -0.000000, -0.000000 
2450763559.768299, -0.622680, 0.015533, -0.000000, -0.000000 
2460768825.697736, -0.607616, 0.033667, -0.000000, 0.000000 
2470774091.627172, -0.593357, 0.049099, -0.000000, 0.000000 
2480779357.556609, -0.580342, 0.062127, -0.000000, 0.000000 
2490784623.486045, -0.568954, 0.073125, -0.000000, 0.000000 
2500789889.415482, -0.559500, 0.082529, -0.000000, 0.000000 
2510795155.344918, -0.552207, 0.090827, -0.000000, 0.000000 
2520800421.274355, -0.547207, 0.098538, 0.000000, 0.000000 
2530805687.203792, -0.544534, 0.106200, 0.000000, 0.000000 
2540810953.133228, -0.544121, 0.114347, 0.000000, 0.000000 
2550816219.062665, -0.545806, 0.123493, 0.000000, 0.000000 
2560821484.992101, -0.549328, 0.134110, 0.000000, 0.000000 
2570826750.921537, -0.554349, 0.146613, 0.000000, -0.000000 
2580832016.850974, -0.560455, 0.161345, 0.000000, -0.000000 
2590837282.780411, -0.567181, 0.178567, 0.000000, -0.000000 
2600842548.709847, -0.574025, 0.198446, 0.000000, -0.000000 
2610847814.639284, -0.580465, 0.221053, 0.000000, -0.000000 
2620853080.568720, -0.585982, 0.246367, -0.000000, -0.000000 
2630858346.498157, -0.590073, 0.274273, -0.000000, -0.000000 
2640863612.427593, -0.592272, 0.304574, -0.000000, -0.000000 
2650868878.357030, -0.592158, 0.336998, -0.000000, -0.000000 
2660874144.286467, -0.589369, 0.371214, -0.000000, -0.000000 
2670879410.215903, -0.583610, 0.406838, -0.000000, -0.000000 
2680884676.145340, -0.574657, 0.443456, -0.000000, 0.000000 
2690889942.074776, -0.562358, 0.480630, -0.000000, 0.000000 
2700895208.004213, -0.546638, 0.517915, -0.000000, 0.000000 
2710900473.933649, -0.527490, 0.554874, -0.000000, 0.000000 
2720905739.863086, -0.504975, 0.591085, -0.000000, 0.000000 
2730911005.792522, -0.479211, 0.626154, 0.000000, 0.000000 
2740916271.721959, -0.450372, 0.659727, 0.000000, 0.000000 
2750921537.651396, -0.418668, 0.691491, 0.000000, 0.000000 
2760926803.580832, -0.384343, 0.721181, 0.000000, 0.000000 
2770932069.510269, -0.347661, 0.748584, 0.000000, 0.000000 
2780937335.439705, -0.308890, 0.773535, 0.000000, -0.000000 
2790942601.369142, -0.268303, 0.795916, 0.000000, -0.000000 
2800947867.298578, -0.226156, 0.815650, 0.000000, -0.000000 
2810953133.228015, -0.182692, 0.832695, 0.000000, -0.000000 
2820958399.157452, -0.138131, 0.847033, 0.000000, -0.000000 
2830963665.086888, -0.092668, 0.858667, -0.000000, -0.000000 
2840968931.016325, -0.046476, 0.867605, -0.000000, -0.000000 
2850974196.945761, 0.000294, 0.873860, -0.000000, -0.000000 
2860979462.875197, 0.047505, 0.877440, -0.000000, -0.000000 
2870984728.804634, 0.095034, 0.878342, -0.000000, -0.000000 
2880989994.734071, 0.142757, 0.876558, -0.000000, -0.000000 
2890995260.663507, 0.190551, 0.872067, -0.000000, 0.000000 
2901000526.592944, 0.238284, 0.864844, -0.000000, 0.000000 
2911005792.522380, 0.285809, 0.854859, -0.000000, 0.000000 
2921011058.451817, 0.332965, 0.842086, -0.000000, 0.000000 
2931016324.381253, 0.379575, 0.826510, -0.000000, 0.000000 
2941021590.310690, 0.425447, 0.808131, 0.000000, 0.000000 
2951026856.240127, 0.470376, 0.786969, 0.000000, 0.000000 
2961032122.169563, 0.514152, 0.763070, 0.000000, 0.000000 
2971037388.099000, 0.556565, 0.736508, 0.000000, 0.000000 
2981042654.028436, 0.597411, 0.707386, 0.000000, 0.000000 
2991047919.957872, 0.636501, 0.675832, 0.000000, -0.000000 
3001053185.887309, 0.673665, 0.642000, 0.000000, -0.000000 
3011058451.816746, 0.708758, 0.606058, 0.000000, -0.000000 
3021063717.746182, 0.741660, 0.568187, 0.000000, -0.000000 
3031068983.675619, 0.772283, 0.528572, 0.000000, -0.000000 
3041074249.605055, 0.800561, 0.487394, -0.000000, -0.000000 
3051079515.534492, 0.826455, 0.444828, -0.000000, -0.000000 
3061084781.463928, 0.849942, 0.401035, -0.000000, -0.000000 
3071090047.393365, 0.871015, 0.356158, -0.000000, -0.000000 
3081095313.322802, 0.889672, 0.310327, -0.000000, -0.000000 
3091100579.252238, 0.905912, 0.263655, -0.000000, 0.000000 
3101105845.181675, 0.919732, 0.216243, -0.000000, 0.000000 
3111111111.111111, 0.931121, 0.168181, -0.000000, 0.000000 
3121116377.040547, 0.940056, 0.119557, -0.000000, 0.000000 
3131121642.969984, 0.946508, 0.070461, -0.000000, 0.000000 
3141126908.899421, 0.950438, 0.020988, -0.000000, 0.000000 
3151132174.828857, 0.951800, -0.028755, 0.000000, 0.000000 
3161137440.758294, 0.950547, -0.078649, 0.000000, 0.000000 
3171142706.687730, 0.946636, -0.128559, 0.000000, 0.000000 
3181147972.617167, 0.940031, -0.178335, 0.000000, 0.000000 
3191153238.546604, 0.930711, -0.227812, 0.000000, 0.000000 
3201158504.476040, 0.918670, -0.276818, 0.000000, -0.000000 
3211163770.405477, 0.903924, -0.325173, 0.000000, -0.000000 
3221169036.334913, 0.886508, -0.372694, 0.000000, -0.000000 
3231174302.264350, 0.866480, -0.419206, 0.000000, -0.000000 
3241179568.193786, 0.843919, -0.464538, 0.000000, -0.000000 
3251184834.123223, 0.818919, -0.508536, -0.000000, -0.000000 
3261190100.052660, 0.791588, -0.551056, -0.000000, -0.000000 
3271195365.982096, 0.762045, -0.591976, -0.000000, -0.000000 
3281200631.911532, 0.730411, -0.631188, -0.000000, -0.000000 
3291205897.840969, 0.696811, -0.668600, -0.000000, -0.000000 
3301211163.770406, 0.661365, -0.704136, -0.000000, 0.000000 
3311216429.699842, 0.624190, -0.737731, -0.000000, 0.000000 
3321221695.629279, 0.585396, -0.769327, -0.000000, 0.000000 
3331226961.558715, 0.545087, -0.798871, -0.000000, 0.000000 
3341232227.488152, 0.503362, -0.826315, -0.000000, 0.000000 
3351237493.417588, 0.460315, -0.851608, -0.000000, 0.000000 
3361242759.347025, 0.416038, -0.874698, 0.000000, 0.000000 
3371248025.276461, 0.370624, -0.895530, 0.000000, 0.000000 
3381253291.205898, 0.324169, -0.914047, 0.000000, 0.000000 
3391258557.135334, 0.276773, -0.930189, 0.000000, 0.000000 
3401263823.064771, 0.228546, -0.943899, 0.000000, 0.000000 
3411269088.994207, 0.179602, -0.955118, 0.000000, -0.000000 
3421274354.923644, 0.130068, -0.963794, 0.000000, -0.000000 
3431279620.853081, 0.080078, -0.969881, 0.000000, -0.000000 
3441284886.782517, 0.029771, -0.973341, 0.000000, -0.000000 
3451290152.711954, -0.020704, -0.974148, 0.000000, -0.000000 
3461295418.641390, -0.071195, -0.972286, -0.000000, -0.000000 
3471300684.570827, -0.121549, -0.967751, -0.000000, -0.000000 
3481305950.500263, -0.171612, -0.960554, -0.000000, -0.000000 
3491311216.429700, -0.221230, -0.950717, -0.000000, -0.000000 
3501316482.359137, -0.270254, -0.938272, -0.000000, -0.000000 
3511321748.288573, -0.318539, -0.923264, -0.000000, 0.000000 
3521327014.218009, -0.365946, -0.905746, -0.000000, 0.000000 
3531332280.147446, -0.412341, -0.885780, -0.000000, 0.000000 
3541337546.076883, -0.457598, -0.863434, -0.000000, 0.000000 
3551342812.006319, -0.501597, -0.838783, -0.000000, 0.000000 
3561348077.935756, -0.544224, -0.811907, -0.000000, 0.000000 
3571353343.865192, -0.585375, -0.782888, 0.000000, 0.000000 
3581358609.794629, -0.624948, -0.751815, 0.000000, 0.000000 
3591363875.724065, -0.662851, -0.718778, 0.000000, 0.000000 
3601369141.653502, -0.698994, -0.683867, 0.000000, 0.000000 
3611374407.582939, -0.733295, -0.647177, 0.000000, 0.000000 
3621379673.512375, -0.765677, -0.608803, 0.000000, -0.000000 
3631384939.441812, -0.796064, -0.568840, 0.000000, -0.000000 
3641390205.371248, -0.824387, -0.527386, 0.000000, -0.000000 
3651395471.300684, -0.850578, -0.484540, 0.000000, -0.000000 
3661400737.230121, -0.874573, -0.440402, 0.000000, -0.000000 
3671406003.159558, -0.896307, -0.395075, -0.000000, -0.000000 
3681411269.088995, -0.915720, -0.348663, -0.000000, -0.000000 
3691416535.018431, -0.932754, -0.301277, -0.000000, -0.000000 
3701421800.947867, -0.947352, -0.253031, -0.000000, -0.000000 
3711427066.877304, -0.959460, -0.204044, -0.000000, -0.000000 
3721432332.806740, -0.969029, -0.154442, -0.000000, 0.000000 
3731437598.736177, -0.976016, -0.104357, -0.000000, 0.000000 
3741442864.665614, -0.980385, -0.053928, -0.000000, 0.000000 
3751448130.595050, -0.982108, -0.003301, -0.000000, 0.000000 
3761453396.524487, -0.981169, 0.047375, -0.000000, 0.000000 
3771458662.453923, -0.977562, 0.097946, 0.000000, 0.000000 
3781463928.383360, -0.971296, 0.148258, 0.000000, 0.000000 
3791469194.312796, -0.962392, 0.198155, 0.000000, 0.000000 
3801474460.242233, -0.950884, 0.247486, 0.000000, 0.000000 
3811479726.171669, -0.936820, 0.296105, 0.000000, 0.000000 
3821484992.101106, -0.920258, 0.343873, 0.000000, 0.000000 
3831490258.030542, -0.901265, 0.390660, 0.000000, -0.000000 
3841495523.959979, -0.879916, 0.436346, 0.000000, -0.000000 
3851500789.889416, -0.856290, 0.480821, 0.000000, -0.000000 
3861506055.818852, -0.830467, 0.523985, 0.000000, -0.000000 
3871511321.748289, -0.802527, 0.565747, 0.000000, -0.000000 
3881516587.677725, -0.772549, 0.606021, -0.000000, -0.000000 
3891521853.607162, -0.740609, 0.644728, -0.000000, -0.000000 
3901527119.536598, -0.706780, 0.681790, -0.000000, -0.000000 
3911532385.466035, -0.671132, 0.717127, -0.000000, -0.000000 
3921537651.395472, -0.633735, 0.750661, -0.000000, -0.000000 
3931542917.324908, -0.594662, 0.782308, -0.000000, 0.000000 
3941548183.254344, -0.553986, 0.811980, -0.000000, 0.000000 
3951553449.183781, -0.511789, 0.839587, -0.000000, 0.000000 
3961558715.113217, -0.468162, 0.865037, -0.000000, 0.000000 
3971563981.042654, -0.423206, 0.888237, -0.000000, 0.000000 
3981569246.972091, -0.377032, 0.909095, 0.000000, 0.000000 
3991574512.901527, -0.329768, 0.927527, 0.000000, 0.000000 
4001579778.830964, -0.281549, 0.943457, 0.000000, 0.000000 
4011585044.760400, -0.232525, 0.956820, 0.000000, 0.000000 
4021590310.689837, -0.182851, 0.967566, 0.000000, 0.000000 
4031595576.619273, -0.132689, 0.975660, 0.000000, 0.000000 
4041600842.548710, -0.082202, 0.981083, 0.000000, -0.000000 
4051606108.478147, -0.031553, 0.983836, 0.000000, -0.000000 
4061611374.407583, 0.019103, 0.983930, 0.000000, -0.000000 
4071616640.337019, 0.069615, 0.981395, 0.000000, -0.000000 
4081621906.266456, 0.119845, 0.976267, 0.000000, -0.000000 
4091627172.195893, 0.169664, 0.968590, -0.000000, -0.000000 
