# stacked metamaterial geometry 
# f [Hz], L [0.001 m]
# Unitcell size lx, ly, lz = 20, 20, 149.896 at center position x = 0 y = 0 z = 0
# Definition of material properties: 
#name = FR4,type = const,Epsilon = 4.1,tand = 0.035,f0 = 10000000000,
#name = copper,type = const,Kappa = 56000000,
#name = copperRings,EpsilonPlasmaFrequency = 250000000000000,EpsilonRelaxTime = 1.6e-13,Kappa = 56000000,type = const,
#name = air,type = const,Epsilon = 1,
## layer number 1:
# rect patch made of copper lx, ly, lz = 20, 20, 0.5 at center position x = 0 y = 0 z = -0.25
# layer number 2:
# rect patch made of FR4 lx, ly, lz = 20, 20, 2 at center position x = 0 y = 0 z = -1.5
# layer number 3:
# circular rings made of copperRings at center position x = 0 y = 0 z = -2.525
# radius R1, R2=9.8, 5.1 ringwidths w1, w2=1.5, 0.5, background material air
# Re/Im parts of the scattering parameters S11 (refl.) and S21 (transm.) as a function of frequency 
# first column is frequency, second and third columns are Re/Im of S11 and S21, respectively.
# Parameters of Metamaterial are: 
1000000000.000000, -0.355305, -0.932055, -0.000000, 0.000000 
1010005265.929437, -0.401873, -0.912610, -0.000000, 0.000000 
1020010531.858873, -0.447423, -0.890956, -0.000000, 0.000000 
1030015797.788310, -0.491887, -0.867117, -0.000000, 0.000000 
1040021063.717746, -0.535180, -0.841107, -0.000000, 0.000000 
1050026329.647183, -0.577200, -0.812943, 0.000000, 0.000000 
1060031595.576619, -0.617830, -0.782650, 0.000000, 0.000000 
1070036861.506056, -0.656936, -0.750268, 0.000000, 0.000000 
1080042127.435492, -0.694380, -0.715856, 0.000000, 0.000000 
1090047393.364929, -0.730021, -0.679499, 0.000000, 0.000000 
1100052659.294365, -0.763728, -0.641303, 0.000000, -0.000000 
1110057925.223802, -0.795381, -0.601395, 0.000000, -0.000000 
1120063191.153239, -0.824884, -0.559916, 0.000000, -0.000000 
1130068457.082675, -0.852161, -0.517013, 0.000000, -0.000000 
1140073723.012112, -0.877161, -0.472834, 0.000000, -0.000000 
1150078988.941548, -0.899852, -0.427519, 0.000000, -0.000000 
1160084254.870985, -0.920214, -0.381196, -0.000000, -0.000000 
1170089520.800421, -0.938240, -0.333977, -0.000000, -0.000000 
1180094786.729858, -0.953920, -0.285961, -0.000000, -0.000000 
1190100052.659294, -0.967241, -0.237232, -0.000000, -0.000000 
1200105318.588731, -0.978178, -0.187868, -0.000000, -0.000000 
1210110584.518167, -0.986697, -0.137945, -0.000000, 0.000000 
1220115850.447604, -0.992745, -0.087545, -0.000000, 0.000000 
1230121116.377041, -0.996264, -0.036763, -0.000000, 0.000000 
1240126382.306477, -0.997185, 0.014289, -0.000000, 0.000000 
1250131648.235914, -0.995443, 0.065477, -0.000000, 0.000000 
1260136914.165350, -0.990981, 0.116644, 0.000000, 0.000000 
1270142180.094787, -0.983759, 0.167610, 0.000000, 0.000000 
1280147446.024223, -0.973760, 0.218182, 0.000000, 0.000000 
1290152711.953660, -0.960998, 0.268153, 0.000000, 0.000000 
1300157977.883096, -0.945522, 0.317320, 0.000000, 0.000000 
1310163243.812533, -0.927409, 0.365487, 0.000000, -0.000000 
1320168509.741970, -0.906770, 0.412476, 0.000000, -0.000000 
1330173775.671406, -0.883732, 0.458138, 0.000000, -0.000000 
1340179041.600842, -0.858440, 0.502353, 0.000000, -0.000000 
1350184307.530279, -0.831039, 0.545031, 0.000000, -0.000000 
1360189573.459716, -0.801665, 0.586115, 0.000000, -0.000000 
1370194839.389152, -0.770443, 0.625570, -0.000000, -0.000000 
1380200105.318589, -0.737472, 0.663378, -0.000000, -0.000000 
1390205371.248025, -0.702829, 0.699530, -0.000000, -0.000000 
1400210637.177462, -0.666564, 0.734009, -0.000000, -0.000000 
1410215903.106898, -0.628709, 0.766792, -0.000000, -0.000000 
1420221169.036335, -0.589280, 0.797833, -0.000000, 0.000000 
1430226434.965771, -0.548287, 0.827063, -0.000000, 0.000000 
1440231700.895208, -0.505743, 0.854386, -0.000000, 0.000000 
1450236966.824645, -0.461678, 0.879682, -0.000000, 0.000000 
1460242232.754081, -0.416141, 0.902811, -0.000000, 0.000000 
1470247498.683518, -0.369214, 0.923621, 0.000000, 0.000000 
1480252764.612954, -0.321014, 0.941958, 0.000000, 0.000000 
1490258030.542391, -0.271691, 0.957676, 0.000000, 0.000000 
1500263296.471827, -0.221431, 0.970648, 0.000000, 0.000000 
1510268562.401264, -0.170446, 0.980776, 0.000000, 0.000000 
1520273828.330700, -0.118967, 0.988001, 0.000000, -0.000000 
1530279094.260137, -0.067230, 0.992302, 0.000000, -0.000000 
1540284360.189574, -0.015468, 0.993699, 0.000000, -0.000000 
1550289626.119010, 0.036104, 0.992248, 0.000000, -0.000000 
1560294892.048447, 0.087293, 0.988035, 0.000000, -0.000000 
1570300157.977883, 0.137938, 0.981166, 0.000000, -0.000000 
1580305423.907320, 0.187913, 0.971756, -0.000000, -0.000000 
1590310689.836756, 0.237123, 0.959917, -0.000000, -0.000000 
1600315955.766193, 0.285500, 0.945751, -0.000000, -0.000000 
1610321221.695629, 0.332998, 0.929341, -0.000000, -0.000000 
1620326487.625066, 0.379583, 0.910747, -0.000000, -0.000000 
1630331753.554502, 0.425223, 0.890005, -0.000000, 0.000000 
1640337019.483939, 0.469878, 0.867125, -0.000000, 0.000000 
1650342285.413375, 0.513492, 0.842104, -0.000000, 0.000000 
1660347551.342812, 0.555988, 0.814924, -0.000000, 0.000000 
1670352817.272249, 0.597263, 0.785568, -0.000000, 0.000000 
1680358083.201685, 0.637189, 0.754024, 0.000000, 0.000000 
1690363349.131122, 0.675614, 0.720300, 0.000000, 0.000000 
1700368615.060558, 0.712368, 0.684423, 0.000000, 0.000000 
1710373880.989995, 0.747270, 0.646456, 0.000000, 0.000000 
1720379146.919431, 0.780141, 0.606492, 0.000000, 0.000000 
1730384412.848868, 0.810808, 0.564656, 0.000000, -0.000000 
1740389678.778304, 0.839116, 0.521103, 0.000000, -0.000000 
1750394944.707741, 0.864935, 0.476013, 0.000000, -0.000000 
1760400210.637177, 0.888166, 0.429579, 0.000000, -0.000000 
1770405476.566614, 0.908739, 0.382003, 0.000000, -0.000000 
1780410742.496051, 0.926616, 0.333482, -0.000000, -0.000000 
1790416008.425487, 0.941786, 0.284207, -0.000000, -0.000000 
1800421274.354924, 0.954259, 0.234352, -0.000000, -0.000000 
1810426540.284360, 0.964061, 0.184072, -0.000000, -0.000000 
1820431806.213797, 0.971225, 0.133505, -0.000000, -0.000000 
1830437072.143233, 0.975783, 0.082769, -0.000000, -0.000000 
1840442338.072670, 0.977764, 0.031967, -0.000000, 0.000000 
1850447604.002106, 0.977191, -0.018808, -0.000000, 0.000000 
1860452869.931543, 0.974071, -0.069466, -0.000000, 0.000000 
1870458135.860980, 0.968406, -0.119917, -0.000000, 0.000000 
1880463401.790416, 0.960186, -0.170064, -0.000000, 0.000000 
1890468667.719852, 0.949397, -0.219800, 0.000000, 0.000000 
1900473933.649289, 0.936026, -0.269006, 0.000000, 0.000000 
1910479199.578726, 0.920063, -0.317548, 0.000000, 0.000000 
1920484465.508162, 0.901507, -0.365281, 0.000000, 0.000000 
1930489731.437599, 0.880371, -0.412049, 0.000000, 0.000000 
1940494997.367035, 0.856686, -0.457689, 0.000000, -0.000000 
1950500263.296472, 0.830499, -0.502037, 0.000000, -0.000000 
1960505529.225908, 0.801876, -0.544932, 0.000000, -0.000000 
1970510795.155345, 0.770899, -0.586218, 0.000000, -0.000000 
1980516061.084782, 0.737664, -0.625747, 0.000000, -0.000000 
1990521327.014218, 0.702278, -0.663383, -0.000000, -0.000000 
2000526592.943655, 0.664854, -0.699003, -0.000000, -0.000000 
2010531858.873091, 0.625514, -0.732490, -0.000000, -0.000000 
2020537124.802528, 0.584379, -0.763740, -0.000000, -0.000000 
2030542390.731964, 0.541574, -0.792653, -0.000000, -0.000000 
2040547656.661401, 0.497226, -0.819136, -0.000000, -0.000000 
2050552922.590837, 0.451466, -0.843097, -0.000000, 0.000000 
2060558188.520274, 0.404429, -0.864450, -0.000000, 0.000000 
2070563454.449710, 0.356257, -0.883107, -0.000000, 0.000000 
2080568720.379147, 0.307103, -0.898989, -0.000000, 0.000000 
2090573986.308583, 0.257128, -0.912020, -0.000000, 0.000000 
2100579252.238020, 0.206506, -0.922135, 0.000000, 0.000000 
2110584518.167457, 0.155421, -0.929280, 0.000000, 0.000000 
2120589784.096893, 0.104064, -0.933419, 0.000000, 0.000000 
2130595050.026330, 0.052633, -0.934530, 0.000000, 0.000000 
2140600315.955766, 0.001326, -0.932612, 0.000000, 0.000000 
2150605581.885203, -0.049659, -0.927682, 0.000000, -0.000000 
2160610847.814639, -0.100133, -0.919772, 0.000000, -0.000000 
2170616113.744076, -0.149914, -0.908927, 0.000000, -0.000000 
2180621379.673512, -0.198831, -0.895204, 0.000000, -0.000000 
2190626645.602949, -0.246723, -0.878663, 0.000000, -0.000000 
2200631911.532386, -0.293437, -0.859363, -0.000000, -0.000000 
2210637177.461822, -0.338823, -0.837362, -0.000000, -0.000000 
2220642443.391258, -0.382730, -0.812714, -0.000000, -0.000000 
2230647709.320695, -0.425002, -0.785468, -0.000000, -0.000000 
2240652975.250132, -0.465467, -0.755676, -0.000000, -0.000000 
2250658241.179568, -0.503936, -0.723392, -0.000000, -0.000000 
2260663507.109005, -0.540197, -0.688683, -0.000000, 0.000000 
2270668773.038442, -0.574018, -0.651641, -0.000000, 0.000000 
2280674038.967878, -0.605142, -0.612387, -0.000000, 0.000000 
2290679304.897314, -0.633301, -0.571091, -0.000000, 0.000000 
2300684570.826751, -0.658219, -0.527969, -0.000000, 0.000000 
2310689836.756187, -0.679627, -0.483303, 0.000000, 0.000000 
2320695102.685624, -0.697276, -0.437434, 0.000000, 0.000000 
2330700368.615061, -0.710957, -0.390771, 0.000000, 0.000000 
2340705634.544497, -0.720518, -0.343778, 0.000000, 0.000000 
2350710900.473934, -0.725875, -0.296970, 0.000000, 0.000000 
2360716166.403370, -0.727035, -0.250899, 0.000000, -0.000000 
2370721432.332807, -0.724098, -0.206128, 0.000000, -0.000000 
2380726698.262243, -0.717272, -0.163222, 0.000000, -0.000000 
2390731964.191680, -0.706865, -0.122716, 0.000000, -0.000000 
2400737230.121117, -0.693287, -0.085096, 0.000000, -0.000000 
2410742496.050553, -0.677039, -0.050781, -0.000000, -0.000000 
2420747761.979990, -0.658697, -0.020099, -0.000000, -0.000000 
2430753027.909426, -0.638899, 0.006724, -0.000000, -0.000000 
2440758293.838862, -0.618320, 0.029579, -0.000000, -0.000000 
2450763559.768299, -0.597651, 0.048478, -0.000000, -0.000000 
2460768825.697736, -0.577578, 0.063558, -0.000000, 0.000000 
2470774091.627172, -0.558755, 0.075079, -0.000000, 0.000000 
2480779357.556609, -0.541785, 0.083419, -0.000000, 0.000000 
2490784623.486045, -0.527193, 0.089062, -0.000000, 0.000000 
2500789889.415482, -0.515409, 0.092585, -0.000000, 0.000000 
2510795155.344918, -0.506752, 0.094637, -0.000000, 0.000000 
2520800421.274355, -0.501414, 0.095920, 0.000000, 0.000000 
2530805687.203792, -0.499450, 0.097160, 0.000000, 0.000000 
2540810953.133228, -0.500778, 0.099085, 0.000000, 0.000000 
2550816219.062665, -0.505178, 0.102391, 0.000000, 0.000000 
2560821484.992101, -0.512301, 0.107721, 0.000000, 0.000000 
2570826750.921537, -0.521683, 0.115639, 0.000000, -0.000000 
2580832016.850974, -0.532762, 0.126603, 0.000000, -0.000000 
2590837282.780411, -0.544904, 0.140956, 0.000000, -0.000000 
2600842548.709847, -0.557429, 0.158914, 0.000000, -0.000000 
2610847814.639284, -0.569635, 0.180556, 0.000000, -0.000000 
2620853080.568720, -0.580830, 0.205832, -0.000000, -0.000000 
2630858346.498157, -0.590351, 0.234568, -0.000000, -0.000000 
2640863612.427593, -0.597593, 0.266478, -0.000000, -0.000000 
2650868878.357030, -0.602021, 0.301179, -0.000000, -0.000000 
2660874144.286467, -0.603189, 0.338212, -0.000000, -0.000000 
2670879410.215903, -0.600744, 0.377061, -0.000000, -0.000000 
2680884676.145340, -0.594438, 0.417171, -0.000000, 0.000000 
2690889942.074776, -0.584122, 0.457975, -0.000000, 0.000000 
2700895208.004213, -0.569749, 0.498905, -0.000000, 0.000000 
2710900473.933649, -0.551360, 0.539416, -0.000000, 0.000000 
2720905739.863086, -0.529084, 0.578997, -0.000000, 0.000000 
2730911005.792522, -0.503118, 0.617188, 0.000000, 0.000000 
2740916271.721959, -0.473718, 0.653586, 0.000000, 0.000000 
2750921537.651396, -0.441181, 0.687853, 0.000000, 0.000000 
2760926803.580832, -0.405832, 0.719719, 0.000000, 0.000000 
2770932069.510269, -0.368009, 0.748981, 0.000000, 0.000000 
2780937335.439705, -0.328045, 0.775500, 0.000000, -0.000000 
2790942601.369142, -0.286260, 0.799192, 0.000000, -0.000000 
2800947867.298578, -0.242949, 0.820022, 0.000000, -0.000000 
2810953133.228015, -0.198375, 0.837989, 0.000000, -0.000000 
2820958399.157452, -0.152767, 0.853118, 0.000000, -0.000000 
2830963665.086888, -0.106320, 0.865446, -0.000000, -0.000000 
2840968931.016325, -0.059194, 0.875012, -0.000000, -0.000000 
2850974196.945761, -0.011525, 0.881848, -0.000000, -0.000000 
2860979462.875197, 0.036568, 0.885974, -0.000000, -0.000000 
2870984728.804634, 0.084981, 0.887391, -0.000000, -0.000000 
2880989994.734071, 0.133606, 0.886086, -0.000000, -0.000000 
2890995260.663507, 0.182332, 0.882029, -0.000000, 0.000000 
2901000526.592944, 0.231030, 0.875178, -0.000000, 0.000000 
2911005792.522380, 0.279555, 0.865491, -0.000000, 0.000000 
2921011058.451817, 0.327739, 0.852925, -0.000000, 0.000000 
2931016324.381253, 0.375390, 0.837454, -0.000000, 0.000000 
2941021590.310690, 0.422300, 0.819067, 0.000000, 0.000000 
2951026856.240127, 0.468243, 0.797782, 0.000000, 0.000000 
2961032122.169563, 0.512989, 0.773649, 0.000000, 0.000000 
2971037388.099000, 0.556307, 0.746750, 0.000000, 0.000000 
2981042654.028436, 0.597975, 0.717202, 0.000000, 0.000000 
2991047919.957872, 0.637791, 0.685153, 0.000000, -0.000000 
3001053185.887309, 0.675576, 0.650776, 0.000000, -0.000000 
3011058451.816746, 0.711182, 0.614264, 0.000000, -0.000000 
3021063717.746182, 0.744494, 0.575820, 0.000000, -0.000000 
3031068983.675619, 0.775431, 0.535648, 0.000000, -0.000000 
3041074249.605055, 0.803942, 0.493947, -0.000000, -0.000000 
3051079515.534492, 0.830004, 0.450904, -0.000000, -0.000000 
3061084781.463928, 0.853613, 0.406686, -0.000000, -0.000000 
3071090047.393365, 0.874780, 0.361438, -0.000000, -0.000000 
3081095313.322802, 0.893520, 0.315287, -0.000000, -0.000000 
3091100579.252238, 0.909850, 0.268337, -0.000000, 0.000000 
3101105845.181675, 0.923774, 0.220675, -0.000000, 0.000000 
3111111111.111111, 0.935290, 0.172381, -0.000000, 0.000000 
3121116377.040547, 0.944377, 0.123527, -0.000000, 0.000000 
3131121642.969984, 0.951004, 0.074189, -0.000000, 0.000000 
3141126908.899421, 0.955122, 0.024450, -0.000000, 0.000000 
3151132174.828857, 0.956677, -0.025592, 0.000000, 0.000000 
3161137440.758294, 0.955611, -0.075824, 0.000000, 0.000000 
3171142706.687730, 0.951865, -0.126110, 0.000000, 0.000000 
3181147972.617167, 0.945392, -0.176297, 0.000000, 0.000000 
3191153238.546604, 0.936158, -0.226214, 0.000000, 0.000000 
3201158504.476040, 0.924149, -0.275676, 0.000000, -0.000000 
3211163770.405477, 0.909375, -0.324492, 0.000000, -0.000000 
3221169036.334913, 0.891871, -0.372466, 0.000000, -0.000000 
3231174302.264350, 0.871698, -0.419406, 0.000000, -0.000000 
3241179568.193786, 0.848941, -0.465132, 0.000000, -0.000000 
3251184834.123223, 0.823703, -0.509477, -0.000000, -0.000000 
3261190100.052660, 0.796106, -0.552293, -0.000000, -0.000000 
3271195365.982096, 0.766280, -0.593452, -0.000000, -0.000000 
3281200631.911532, 0.734362, -0.632848, -0.000000, -0.000000 
3291205897.840969, 0.700488, -0.670393, -0.000000, -0.000000 
3301211163.770406, 0.664790, -0.706020, -0.000000, 0.000000 
3311216429.699842, 0.627392, -0.739671, -0.000000, 0.000000 
3321221695.629279, 0.588409, -0.771302, -0.000000, 0.000000 
3331226961.558715, 0.547947, -0.800873, -0.000000, 0.000000 
3341232227.488152, 0.506101, -0.828345, -0.000000, 0.000000 
3351237493.417588, 0.462959, -0.853677, -0.000000, 0.000000 
3361242759.347025, 0.418607, -0.876827, 0.000000, 0.000000 
3371248025.276461, 0.373126, -0.897743, 0.000000, 0.000000 
3381253291.205898, 0.326602, -0.916370, 0.000000, 0.000000 
3391258557.135334, 0.279125, -0.932646, 0.000000, 0.000000 
3401263823.064771, 0.230794, -0.946508, 0.000000, 0.000000 
3411269088.994207, 0.181718, -0.957891, 0.000000, -0.000000 
3421274354.923644, 0.132018, -0.966732, 0.000000, -0.000000 
3431279620.853081, 0.081826, -0.972974, 0.000000, -0.000000 
3441284886.782517, 0.031286, -0.976571, 0.000000, -0.000000 
3451290152.711954, -0.019451, -0.977484, 0.000000, -0.000000 
3461295418.641390, -0.070225, -0.975693, -0.000000, -0.000000 
3471300684.570827, -0.120872, -0.971187, -0.000000, -0.000000 
3481305950.500263, -0.171229, -0.963976, -0.000000, -0.000000 
3491311216.429700, -0.221131, -0.954081, -0.000000, -0.000000 
3501316482.359137, -0.270420, -0.941540, -0.000000, -0.000000 
3511321748.288573, -0.318941, -0.926404, -0.000000, 0.000000 
3521327014.218009, -0.366549, -0.908734, -0.000000, 0.000000 
3531332280.147446, -0.413108, -0.888601, -0.000000, 0.000000 
3541337546.076883, -0.458491, -0.866086, -0.000000, 0.000000 
3551342812.006319, -0.502580, -0.841271, -0.000000, 0.000000 
3561348077.935756, -0.545267, -0.814246, -0.000000, 0.000000 
3571353343.865192, -0.586453, -0.785100, 0.000000, 0.000000 
3581358609.794629, -0.626048, -0.753925, 0.000000, 0.000000 
3591363875.724065, -0.663967, -0.720812, 0.000000, 0.000000 
3601369141.653502, -0.700130, -0.685851, 0.000000, 0.000000 
3611374407.582939, -0.734464, -0.649131, 0.000000, 0.000000 
3621379673.512375, -0.766896, -0.610742, 0.000000, -0.000000 
3631384939.441812, -0.797357, -0.570771, 0.000000, -0.000000 
3641390205.371248, -0.825778, -0.529307, 0.000000, -0.000000 
3651395471.300684, -0.852089, -0.486439, 0.000000, -0.000000 
3661400737.230121, -0.876222, -0.442260, 0.000000, -0.000000 
3671406003.159558, -0.898108, -0.396866, -0.000000, -0.000000 
3681411269.088995, -0.917679, -0.350359, -0.000000, -0.000000 
3691416535.018431, -0.934865, -0.302845, -0.000000, -0.000000 
3701421800.947867, -0.949602, -0.254441, -0.000000, -0.000000 
3711427066.877304, -0.961829, -0.205269, -0.000000, -0.000000 
3721432332.806740, -0.971489, -0.155461, -0.000000, 0.000000 
3731437598.736177, -0.978534, -0.105156, -0.000000, 0.000000 
3741442864.665614, -0.982926, -0.054503, -0.000000, 0.000000 
3751448130.595050, -0.984636, -0.003656, -0.000000, 0.000000 
3761453396.524487, -0.983651, 0.047228, -0.000000, 0.000000 
3771458662.453923, -0.979971, 0.097987, 0.000000, 0.000000 
3781463928.383360, -0.973610, 0.148461, 0.000000, 0.000000 
3791469194.312796, -0.964598, 0.198491, 0.000000, 0.000000 
3801474460.242233, -0.952977, 0.247925, 0.000000, 0.000000 
3811479726.171669, -0.938805, 0.296619, 0.000000, 0.000000 
3821484992.101106, -0.922146, 0.344437, 0.000000, 0.000000 
3831490258.030542, -0.903073, 0.391255, 0.000000, -0.000000 
3841495523.959979, -0.881666, 0.436961, 0.000000, -0.000000 
3851500789.889416, -0.858003, 0.481452, 0.000000, -0.000000 
3861506055.818852, -0.832165, 0.524638, 0.000000, -0.000000 
3871511321.748289, -0.804228, 0.566433, 0.000000, -0.000000 
3881516587.677725, -0.774265, 0.606758, -0.000000, -0.000000 
3891521853.607162, -0.742345, 0.645538, -0.000000, -0.000000 
3901527119.536598, -0.708534, 0.682695, -0.000000, -0.000000 
3911532385.466035, -0.672894, 0.718150, -0.000000, -0.000000 
3921537651.395472, -0.635488, 0.751820, -0.000000, -0.000000 
3931542917.324908, -0.596381, 0.783616, -0.000000, 0.000000 
3941548183.254344, -0.555645, 0.813445, -0.000000, 0.000000 
3951553449.183781, -0.513359, 0.841208, -0.000000, 0.000000 
3961558715.113217, -0.469613, 0.866805, -0.000000, 0.000000 
3971563981.042654, -0.424511, 0.890134, -0.000000, 0.000000 
3981569246.972091, -0.378170, 0.911098, 0.000000, 0.000000 
3991574512.901527, -0.330724, 0.929609, 0.000000, 0.000000 
4001579778.830964, -0.282316, 0.945586, 0.000000, 0.000000 
4011585044.760400, -0.233102, 0.958965, 0.000000, 0.000000 
4021590310.689837, -0.183248, 0.969697, 0.000000, 0.000000 
4031595576.619273, -0.132922, 0.977751, 0.000000, 0.000000 
4041600842.548710, -0.082291, 0.983116, 0.000000, -0.000000 
4051606108.478147, -0.031522, 0.985797, 0.000000, -0.000000 
4061611374.407583, 0.019227, 0.985816, 0.000000, -0.000000 
4071616640.337019, 0.069809, 0.983207, 0.000000, -0.000000 
4081621906.266456, 0.120088, 0.978015, 0.000000, -0.000000 
4091627172.195893, 0.169940, 0.970290, -0.000000, -0.000000 
